height(km) press(hPa) W(M/S) T(C) T-TE(C) QV(g/kg) SAT(g/kg) QC(g/kg) QH(g/kg) QI(g/kg) "Buoy(1e-2 m/s2)" radius(m) dwdt_entr(unitless) plumeT(K) envT(K)
0.0000 855.9332 27.1618 21.9920 0.3153 4.4720 20.0017 0.0000 0.0000 0.0000 -6.5345 1.1272 -0.0528 295.2920 294.9767
0.0500 851.0151 26.7360 21.2195 -2.4245 4.4772 19.1653 0.0000 0.0000 0.0000 -6.5345 1.1309 -0.0528 294.5195 296.9440
0.1500 841.2422 26.2570 20.2777 -3.2118 4.4841 18.2720 0.0000 0.0000 0.0000 -7.7373 1.1355 -0.0505 293.5777 296.7895
0.2500 831.4766 25.7515 19.3390 -3.5255 4.4899 17.4193 0.0000 0.0000 0.0000 -8.3780 1.1401 -0.0489 292.6389 296.1645
0.3500 821.8107 25.2141 18.4033 -3.8298 4.4946 16.6039 0.0000 0.0000 0.0000 -8.9951 1.1448 -0.0472 291.7033 295.5331
0.4500 812.3410 24.6547 17.4704 -4.1187 4.4981 15.8218 0.0000 0.0000 0.0000 -9.5955 1.1495 -0.0455 290.7704 294.8892
0.5500 802.8712 24.0454 16.5410 -4.4043 4.5006 15.0762 0.0000 0.0000 0.0000 -10.8847 1.1543 -0.0438 289.8409 294.2452
0.6500 793.6423 23.3464 15.6146 -5.3134 4.5020 14.3606 0.0000 0.0000 0.0000 -13.1573 1.1585 -0.0387 288.9146 294.2280
0.7500 784.5184 22.5371 14.6924 -6.4911 4.5026 13.6775 0.0000 0.0000 0.0000 -15.7056 1.1623 -0.0314 287.9924 294.4835
0.8500 775.3942 21.6268 13.7829 -7.6561 4.5026 13.0345 0.0000 0.0000 0.0000 -17.2842 1.1662 -0.0284 287.0829 294.7390
0.9500 766.5478 20.6390 12.8868 -7.9208 4.5027 12.4252 0.0000 0.0000 0.0000 -17.8508 1.1710 -0.0302 286.1868 294.1076
1.0500 757.7137 19.5557 12.0071 -8.1292 4.5028 11.8543 0.0000 0.0000 0.0000 -18.3326 1.1767 -0.0334 285.3071 293.4362
1.1500 748.9236 18.3640 11.1462 -8.3155 4.5029 11.3207 0.0000 0.0000 0.0000 -18.7445 1.1836 -0.0360 284.4462 292.7617
1.2500 740.4346 17.0531 10.3031 -8.4626 4.5029 10.8172 0.0000 0.0000 0.0000 -19.0877 1.1915 -0.0370 283.6031 292.0656
1.3500 731.9457 15.6046 9.4808 -8.5887 4.5025 10.3485 0.0000 0.0000 0.0000 -19.3794 1.2006 -0.0365 282.7808 291.3695
1.4500 723.4567 13.9808 8.6840 -8.6895 4.5016 9.9155 0.0000 0.0000 0.0000 -19.6055 1.2113 -0.0348 281.9839 290.6735
1.5500 714.9678 12.1069 7.9203 -8.7571 4.5000 9.5205 0.0000 0.0000 0.0000 -19.7266 1.2240 -0.0317 281.2202 289.9774
1.6500 706.4788 9.7045 7.2168 -8.7645 4.4968 9.1782 0.0000 0.0000 0.0000 -19.5074 1.2409 -0.0264 280.5168 289.2812
1.7500 698.0966 6.2967 6.7318 -8.5278 4.4842 8.9817 0.0000 0.0000 0.0000 -18.1137 1.2817 -0.0172 280.0318 288.5596
1.8500 690.0579 2.3692 6.9713 -7.4846 4.4311 9.2408 0.0000 0.0000 0.0000 -14.6412 1.4154 -0.0060 280.2712 287.7558
1.9500 682.0193 -0.3930 8.2489 -5.4031 4.3102 10.2172 0.0000 0.0000 0.0000 -9.6595 1.6823 -0.0008 281.5489 286.9519
2.0500 673.9807 -1.2248 9.8102 -3.0379 4.1607 11.5109 0.0000 0.0000 0.0000 -5.1870 1.9778 -0.0019 283.1102 286.1481
2.1500 665.9421 -0.9619 10.6188 -1.4254 4.0306 12.3120 0.0000 0.0000 0.0000 -2.4753 2.2013 -0.0012 283.9188 285.3442
2.2500 657.9035 -0.5537 10.6132 -0.6272 3.9227 12.4607 0.0000 0.0000 0.0000 -1.2097 2.3525 -0.0006 283.9132 284.5403
2.3500 649.8726 -0.2732 10.1404 -0.2943 3.8242 12.2183 0.0000 0.0000 0.0000 -0.6188 2.4562 -0.0003 283.4404 283.7347
2.4500 642.2853 -0.1213 9.4138 -0.1104 3.7251 11.7664 0.0000 0.0000 0.0000 -0.3047 2.5260 -0.0001 282.7138 282.8242
2.5500 634.6980 -0.0521 8.5753 -0.0384 3.6225 11.2429 0.0000 0.0000 0.0000 -0.1741 2.5706 -0.0000 281.8753 281.9138
2.6500 627.1108 -0.0236 7.6913 -0.0120 3.5156 10.7064 0.0000 0.0000 0.0000 -0.1184 2.5940 -0.0000 280.9913 281.0033
2.7500 619.5236 -0.0119 6.7908 -0.0020 3.4042 10.1813 0.0000 0.0000 0.0000 -0.0883 2.5982 -0.0000 280.0908 280.0928
2.8500 611.9363 -0.0059 5.8873 0.0049 3.2884 9.6772 0.0000 0.0000 0.0000 -0.0545 2.5839 -0.0000 279.1873 279.1823
2.9500 604.3490 -0.0024 4.9924 0.0205 3.1685 9.2012 0.0000 0.0000 0.0000 -0.0212 2.5514 -0.0000 278.2924 278.2719
3.0500 596.9601 -0.0012 4.1390 0.0233 3.0446 8.7692 0.0000 0.0000 0.0000 -0.0140 2.5005 -0.0000 277.4390 277.4156
3.1500 589.8376 -0.0006 3.3377 0.0055 2.9173 8.3828 0.0000 0.0000 0.0000 -0.0104 2.4311 -0.0000 276.6377 276.6321
3.2500 582.7151 0.0004 2.5499 0.0012 2.7883 8.0196 0.0000 0.0000 0.0000 0.0081 2.3439 -0.0000 275.8499 275.8487
3.3500 575.5926 0.0014 1.7655 0.0003 2.6587 7.6725 0.0000 0.0000 0.0000 0.0273 2.2391 -0.0000 275.0655 275.0652
3.4500 568.4701 0.0020 0.9818 0.0001 2.5298 7.3395 0.0000 0.0000 0.0000 0.0444 2.1162 -0.0000 274.2818 274.2817
3.5500 561.3476 0.0025 0.1985 0.0002 2.4025 7.0196 0.0000 0.0000 0.0000 0.0598 1.9743 -0.0000 273.4984 273.4982
3.6500 554.2251 0.0024 -0.5841 0.0012 2.2780 6.7128 0.0000 0.0000 0.0000 0.0645 1.8119 -0.0000 272.7159 272.7148
3.7500 547.2952 0.0016 -1.3623 0.0015 2.1577 6.4180 0.0000 0.0000 0.0000 0.0454 1.6268 -0.0000 271.9377 271.9362
3.8500 540.6463 0.0002 -2.1348 0.0002 2.0423 6.1343 0.0000 0.0000 0.0000 0.0000 1.4159 -0.0000 271.1652 271.1650
3.9500 533.9974 0.0000 -2.9063 0.0000 1.9299 5.8623 0.0000 0.0000 0.0000 0.0000 1.1746 0.0000 270.3937 270.3937
4.0500 527.3484 0.0000 -3.6776 0.0000 1.8887 5.6014 0.0000 0.0000 0.0000 0.0000 1.1758 0.0000 269.6224 269.6224
4.1500 520.6995 0.0000 -4.4489 0.0000 1.8469 5.3510 0.0000 0.0000 0.0000 0.0000 1.1770 0.0000 268.8511 268.8511
4.2500 514.0505 0.0000 -5.2202 0.0000 1.8048 5.1107 0.0000 0.0000 0.0000 0.0000 1.1782 0.0000 268.0798 268.0798
4.3500 507.4016 0.0000 -5.9914 0.0000 1.7623 4.8802 0.0000 0.0000 0.0000 0.0000 1.1794 0.0000 267.3086 267.3086
4.4500 500.7527 0.0000 -6.7627 0.0000 1.7197 4.6591 0.0000 0.0000 0.0000 0.0000 1.1806 0.0000 266.5373 266.5373
4.5500 494.5529 0.0000 -7.4165 0.0000 1.6249 4.4840 0.0000 0.0000 0.0000 0.0000 1.1818 0.0000 265.8835 265.8835
4.6500 488.4103 0.0000 -8.0553 0.0000 1.5281 4.3195 0.0000 0.0000 0.0000 0.0000 1.1830 0.0000 265.2447 265.2447
4.7500 482.2678 0.0000 -8.6942 0.0000 1.4361 4.1606 0.0000 0.0000 0.0000 0.0000 1.1842 0.0000 264.6058 264.6058
4.8500 476.1253 0.0000 -9.3330 0.0000 1.3487 4.0071 0.0000 0.0000 0.0000 0.0000 1.1854 0.0000 263.9670 263.9670
4.9500 469.9828 0.0000 -9.9718 0.0000 1.2656 3.8588 0.0000 0.0000 0.0000 0.0000 1.1866 0.0000 263.3282 263.3282
5.0500 463.8403 0.0000 -10.6106 0.0000 1.1867 3.7156 0.0000 0.0000 0.0000 0.0000 1.1878 0.0000 262.6894 262.6894
5.1500 457.6978 0.0000 -11.2494 0.0000 1.1118 3.5774 0.0000 0.0000 0.0000 0.0000 1.1890 0.0000 262.0506 262.0506
5.2500 451.5553 0.0000 -11.8882 0.0000 1.0407 3.4440 0.0000 0.0000 0.0000 0.0000 1.1902 0.0000 261.4117 261.4117
5.3500 445.8092 0.0000 -12.6032 0.0000 1.0068 3.2918 0.0000 0.0000 0.0000 0.0000 1.1914 0.0000 260.6968 260.6968
5.4500 440.1976 0.0000 -13.3439 0.0000 0.9845 3.1381 0.0000 0.0000 0.0000 0.0000 1.1926 0.0000 259.9561 259.9561
5.5500 434.5859 0.0000 -14.0847 0.0000 0.9618 2.9909 0.0000 0.0000 0.0000 0.0000 1.1938 0.0000 259.2153 259.2153
5.6500 428.9742 0.0000 -14.8254 0.0000 0.9389 2.8499 0.0000 0.0000 0.0000 0.0000 1.1950 0.0000 258.4746 258.4746
5.7500 423.3625 0.0000 -15.5661 0.0000 0.9157 2.7150 0.0000 0.0000 0.0000 0.0000 1.1962 0.0000 257.7339 257.7339
5.8500 417.7509 0.0000 -16.3069 0.0000 0.8925 2.5859 0.0000 0.0000 0.0000 0.0000 1.1974 0.0000 256.9931 256.9931
5.9500 412.1392 0.0000 -17.0476 0.0000 0.8692 2.4623 0.0000 0.0000 0.0000 0.0000 1.1986 0.0000 256.2523 256.2523
6.0500 406.5275 0.0000 -17.7884 0.0000 0.8459 2.3441 0.0000 0.0000 0.0000 0.0000 1.1998 0.0000 255.5116 255.5116
6.1500 400.9158 0.0000 -18.5291 0.0000 0.8227 2.2311 0.0000 0.0000 0.0000 0.0000 1.2010 0.0000 254.7709 254.7709
6.2500 395.7306 0.0000 -19.2990 0.0000 0.8496 2.1155 0.0000 0.0000 0.0000 0.0000 1.2022 0.0000 254.0010 254.0010
6.3500 390.6286 0.0000 -20.0744 0.0000 0.8804 2.0038 0.0000 0.0000 0.0000 0.0000 1.2034 0.0000 253.2255 253.2255
6.4500 385.5266 0.0000 -20.8500 0.0000 0.9053 1.8975 0.0000 0.0000 0.0000 0.0000 1.2046 0.0000 252.4500 252.4500
6.5500 380.4245 0.0000 -21.6255 0.0000 0.9248 1.7963 0.0000 0.0000 0.0000 0.0000 1.2058 0.0000 251.6745 251.6745
6.6500 375.3224 0.0000 -22.4010 0.0000 0.9394 1.6999 0.0000 0.0000 0.0000 0.0000 1.2070 0.0000 250.8990 250.8990
6.7500 370.2204 0.0000 -23.1765 0.0000 0.9495 1.6083 0.0000 0.0000 0.0000 0.0000 1.2082 0.0000 250.1235 250.1235
6.8500 365.1184 0.0000 -23.9520 0.0000 0.9554 1.5211 0.0000 0.0000 0.0000 0.0000 1.2094 0.0000 249.3480 249.3480
6.9500 360.0163 0.0000 -24.7275 0.0000 0.9577 1.4382 0.0000 0.0000 0.0000 0.0000 1.2106 0.0000 248.5725 248.5725
7.0500 354.9143 0.0000 -25.5030 0.0000 0.9565 1.3594 0.0000 0.0000 0.0000 0.0000 1.2118 0.0000 247.7970 247.7970
7.1500 349.8326 0.0000 -26.2748 0.0000 0.9483 1.2849 0.0000 0.0000 0.0000 0.0000 1.2130 0.0000 247.0252 247.0252
7.2500 345.2830 0.0000 -26.9481 0.0000 0.8372 1.2234 0.0000 0.0000 0.0000 0.0000 1.2142 0.0000 246.3519 246.3519
7.3500 340.7334 0.0000 -27.6215 0.0000 0.7344 1.1645 0.0000 0.0000 0.0000 0.0000 1.2154 0.0000 245.6785 245.6785
7.4500 336.1838 0.0000 -28.2948 0.0000 0.6394 1.1083 0.0000 0.0000 0.0000 0.0000 1.2166 0.0000 245.0052 245.0052
7.5500 331.6342 0.0000 -28.9681 0.0000 0.5518 1.0545 0.0000 0.0000 0.0000 0.0000 1.2178 0.0000 244.3318 244.3318
7.6500 327.0847 0.0000 -29.6415 0.0000 0.4710 1.0031 0.0000 0.0000 0.0000 0.0000 1.2190 0.0000 243.6585 243.6585
7.7500 322.5351 0.0000 -30.3148 0.0000 0.3968 0.9540 0.0000 0.0000 0.0000 0.0000 1.2202 0.0000 242.9852 242.9852
7.8500 317.9855 0.0000 -30.9881 0.0000 0.3286 0.9071 0.0000 0.0000 0.0000 0.0000 1.2214 0.0000 242.3118 242.3118
7.9500 313.4359 0.0000 -31.6615 0.0000 0.2661 0.8624 0.0000 0.0000 0.0000 0.0000 1.2226 0.0000 241.6385 241.6385
8.0500 308.8863 0.0000 -32.3348 0.0000 0.2089 0.8196 0.0000 0.0000 0.0000 0.0000 1.2238 0.0000 240.9652 240.9652
8.1500 304.3367 0.0000 -33.0082 0.0000 0.1567 0.7789 0.0000 0.0000 0.0000 0.0000 1.2250 0.0000 240.2918 240.2918
8.2500 299.8134 0.0000 -33.6847 0.0000 0.1109 0.7397 0.0000 0.0000 0.0000 0.0000 1.2262 0.0000 239.6153 239.6153
8.3500 295.8262 0.0000 -34.4263 0.0000 0.1045 0.6965 0.0000 0.0000 0.0000 0.0000 1.2274 0.0000 238.8737 238.8737
8.4500 291.8389 0.0000 -35.1680 0.0000 0.0983 0.6556 0.0000 0.0000 0.0000 0.0000 1.2286 0.0000 238.1320 238.1320
8.5500 287.8517 0.0000 -35.9096 0.0000 0.0925 0.6169 0.0000 0.0000 0.0000 0.0000 1.2298 0.0000 237.3904 237.3904
8.6500 283.8645 0.0000 -36.6512 0.0000 0.0870 0.5803 0.0000 0.0000 0.0000 0.0000 1.2310 0.0000 236.6488 236.6488
8.7500 279.8772 0.0000 -37.3928 0.0000 0.0818 0.5456 0.0000 0.0000 0.0000 0.0000 1.2322 0.0000 235.9072 235.9072
8.8500 275.8900 0.0000 -38.1345 0.0000 0.0769 0.5128 0.0000 0.0000 0.0000 0.0000 1.2334 0.0000 235.1655 235.1655
8.9500 271.9027 0.0000 -38.8761 0.0000 0.0723 0.4819 0.0000 0.0000 0.0000 0.0000 1.2346 0.0000 234.4239 234.4239
9.0500 267.9155 0.0000 -39.6177 0.0000 0.0679 0.4526 0.0000 0.0000 0.0000 0.0000 1.2358 0.0000 233.6823 233.6823
9.1500 263.9283 0.0000 -40.3593 0.0000 0.0637 0.4250 0.0000 0.0000 0.0000 0.0000 1.2370 0.0000 232.9406 232.9406
9.2500 259.9410 0.0000 -41.1010 0.0000 0.0598 0.3989 0.0000 0.0000 0.0000 0.0000 1.2382 0.0000 232.1990 232.1990
9.3500 255.9538 0.0000 -41.8426 0.0000 0.0561 0.3743 0.0000 0.0000 0.0000 0.0000 1.2394 0.0000 231.4574 231.4574
9.4500 251.9665 0.0000 -42.5842 0.0000 0.0527 0.3510 0.0000 0.0000 0.0000 0.0000 1.2406 0.0000 230.7158 230.7158
9.5500 248.1978 0.0000 -43.2888 0.0000 0.0512 0.3302 0.0000 0.0000 0.0000 0.0000 1.2418 0.0000 230.0112 230.0112
9.6500 244.6416 0.0000 -43.9574 0.0000 0.0514 0.3114 0.0000 0.0000 0.0000 0.0000 1.2430 0.0000 229.3426 229.3426
9.7500 241.0854 0.0000 -44.6259 0.0000 0.0514 0.2936 0.0000 0.0000 0.0000 0.0000 1.2442 0.0000 228.6740 228.6740
9.8500 237.5292 0.0000 -45.2945 0.0000 0.0512 0.2768 0.0000 0.0000 0.0000 0.0000 1.2454 0.0000 228.0055 228.0055
9.9500 233.9730 0.0000 -45.9631 0.0000 0.0508 0.2608 0.0000 0.0000 0.0000 0.0000 1.2466 0.0000 227.3369 227.3369
10.0500 230.4168 0.0000 -46.6316 0.0000 0.0503 0.2457 0.0000 0.0000 0.0000 0.0000 1.2478 0.0000 226.6684 226.6684
10.1500 226.8606 0.0000 -47.3002 0.0000 0.0497 0.2314 0.0000 0.0000 0.0000 0.0000 1.2490 0.0000 225.9998 225.9998
10.2500 223.4520 0.0000 -47.9286 0.0000 0.0487 0.2187 0.0000 0.0000 0.0000 0.0000 1.2502 0.0000 225.3714 225.3714
10.3500 220.2052 0.0000 -48.5131 0.0000 0.0473 0.2076 0.0000 0.0000 0.0000 0.0000 1.2514 0.0000 224.7869 224.7869
10.4500 216.9585 0.0000 -49.0975 0.0000 0.0459 0.1970 0.0000 0.0000 0.0000 0.0000 1.2526 0.0000 224.2025 224.2025
10.5500 213.7117 0.0000 -49.6819 0.0000 0.0445 0.1869 0.0000 0.0000 0.0000 0.0000 1.2538 0.0000 223.6181 223.6181
10.6500 210.4650 0.0000 -50.2663 0.0000 0.0431 0.1772 0.0000 0.0000 0.0000 0.0000 1.2550 0.0000 223.0337 223.0337
10.7500 207.2182 0.0000 -50.8507 0.0000 0.0418 0.1681 0.0000 0.0000 0.0000 0.0000 1.2562 0.0000 222.4493 222.4493
10.8500 203.9715 0.0000 -51.4351 0.0000 0.0404 0.1594 0.0000 0.0000 0.0000 0.0000 1.2574 0.0000 221.8649 221.8649
10.9500 200.7247 0.0000 -52.0195 0.0000 0.0391 0.1511 0.0000 0.0000 0.0000 0.0000 1.2586 0.0000 221.2804 221.2804
11.0500 197.7287 0.0000 -52.5861 0.0000 0.0375 0.1433 0.0000 0.0000 0.0000 0.0000 1.2598 0.0000 220.7139 220.7139
11.1500 194.8047 0.0000 -53.1475 0.0000 0.0359 0.1360 0.0000 0.0000 0.0000 0.0000 1.2610 0.0000 220.1525 220.1525
11.2500 191.8807 0.0000 -53.7089 0.0000 0.0344 0.1290 0.0000 0.0000 0.0000 0.0000 1.2622 0.0000 219.5911 219.5911
11.3500 188.9568 0.0000 -54.2703 0.0000 0.0329 0.1223 0.0000 0.0000 0.0000 0.0000 1.2634 0.0000 219.0297 219.0297
11.4500 186.0328 0.0000 -54.8317 0.0000 0.0315 0.1160 0.0000 0.0000 0.0000 0.0000 1.2646 0.0000 218.4683 218.4683
11.5500 183.1088 0.0000 -55.3931 0.0000 0.0301 0.1100 0.0000 0.0000 0.0000 0.0000 1.2658 0.0000 217.9069 217.9069
11.6500 180.1848 0.0000 -55.9545 0.0000 0.0288 0.1042 0.0000 0.0000 0.0000 0.0000 1.2670 0.0000 217.3455 217.3455
11.7500 177.2608 0.0000 -56.5159 0.0000 0.0275 0.0988 0.0000 0.0000 0.0000 0.0000 1.2682 0.0000 216.7841 216.7841
11.8500 174.4131 0.0000 -57.0556 0.0000 0.0262 0.0938 0.0000 0.0000 0.0000 0.0000 1.2694 0.0000 216.2443 216.2443
11.9500 171.8251 0.0000 -57.5215 0.0000 0.0246 0.0898 0.0000 0.0000 0.0000 0.0000 1.2706 0.0000 215.7785 215.7785
12.0500 169.2371 0.0000 -57.9873 0.0000 0.0231 0.0859 0.0000 0.0000 0.0000 0.0000 1.2718 0.0000 215.3127 215.3127
12.1500 166.6491 0.0000 -58.4532 0.0000 0.0217 0.0822 0.0000 0.0000 0.0000 0.0000 1.2730 0.0000 214.8468 214.8468
12.2500 164.0611 0.0000 -58.9190 0.0000 0.0203 0.0787 0.0000 0.0000 0.0000 0.0000 1.2742 0.0000 214.3810 214.3810
12.3500 161.4731 0.0000 -59.3848 0.0000 0.0190 0.0753 0.0000 0.0000 0.0000 0.0000 1.2754 0.0000 213.9151 213.9151
12.4500 158.8851 0.0000 -59.8507 0.0000 0.0178 0.0720 0.0000 0.0000 0.0000 0.0000 1.2766 0.0000 213.4493 213.4493
12.5500 156.2971 0.0000 -60.3165 0.0000 0.0167 0.0689 0.0000 0.0000 0.0000 0.0000 1.2778 0.0000 212.9835 212.9835
12.6500 153.7091 0.0000 -60.7823 0.0000 0.0157 0.0659 0.0000 0.0000 0.0000 0.0000 1.2790 0.0000 212.5176 212.5176
12.7500 151.1211 0.0000 -61.2482 0.0000 0.0146 0.0631 0.0000 0.0000 0.0000 0.0000 1.2802 0.0000 212.0518 212.0518
12.8500 148.7292 0.0000 -61.7550 0.0000 0.0141 0.0599 0.0000 0.0000 0.0000 0.0000 1.2814 0.0000 211.5450 211.5450
12.9500 146.4870 0.0000 -62.2931 0.0000 0.0139 0.0566 0.0000 0.0000 0.0000 0.0000 1.2826 0.0000 211.0069 211.0069
13.0500 144.2449 0.0000 -62.8312 0.0000 0.0137 0.0535 0.0000 0.0000 0.0000 0.0000 1.2838 0.0000 210.4688 210.4688
13.1500 142.0027 0.0000 -63.3694 0.0000 0.0134 0.0505 0.0000 0.0000 0.0000 0.0000 1.2850 0.0000 209.9306 209.9306
13.2500 139.7606 0.0000 -63.9075 0.0000 0.0131 0.0477 0.0000 0.0000 0.0000 0.0000 1.2862 0.0000 209.3925 209.3925
13.3500 137.5184 0.0000 -64.4456 0.0000 0.0128 0.0451 0.0000 0.0000 0.0000 0.0000 1.2874 0.0000 208.8544 208.8544
13.4500 135.2762 0.0000 -64.9837 0.0000 0.0125 0.0426 0.0000 0.0000 0.0000 0.0000 1.2886 0.0000 208.3163 208.3163
13.5500 133.0341 0.0000 -65.5218 0.0000 0.0122 0.0402 0.0000 0.0000 0.0000 0.0000 1.2898 0.0000 207.7782 207.7782
13.6500 130.7919 0.0000 -66.0599 0.0000 0.0119 0.0379 0.0000 0.0000 0.0000 0.0000 1.2910 0.0000 207.2401 207.2401
13.7500 128.5498 0.0000 -66.5981 0.0000 0.0116 0.0358 0.0000 0.0000 0.0000 0.0000 1.2922 0.0000 206.7019 206.7019
13.8500 126.3076 0.0000 -67.1362 0.0000 0.0113 0.0338 0.0000 0.0000 0.0000 0.0000 1.2934 0.0000 206.1638 206.1638
13.9500 124.2160 0.0000 -67.5566 0.0000 0.0110 0.0323 0.0000 0.0000 0.0000 0.0000 1.2946 0.0000 205.7434 205.7434
14.0500 122.3349 0.0000 -67.8125 0.0000 0.0109 0.0317 0.0000 0.0000 0.0000 0.0000 1.2958 0.0000 205.4875 205.4875
14.1500 120.4537 0.0000 -68.0683 0.0000 0.0108 0.0310 0.0000 0.0000 0.0000 0.0000 1.2970 0.0000 205.2317 205.2317
14.2500 118.5726 0.0000 -68.3241 0.0000 0.0106 0.0304 0.0000 0.0000 0.0000 0.0000 1.2982 0.0000 204.9759 204.9759
14.3500 116.6915 0.0000 -68.5800 0.0000 0.0105 0.0298 0.0000 0.0000 0.0000 0.0000 1.2994 0.0000 204.7200 204.7200
14.4500 114.8104 0.0000 -68.8358 0.0000 0.0104 0.0291 0.0000 0.0000 0.0000 0.0000 1.3006 0.0000 204.4642 204.4642
14.5500 112.9293 0.0000 -69.0916 0.0000 0.0103 0.0286 0.0000 0.0000 0.0000 0.0000 1.3018 0.0000 204.2084 204.2084
14.6500 111.0482 0.0000 -69.3474 0.0000 0.0101 0.0280 0.0000 0.0000 0.0000 0.0000 1.3030 0.0000 203.9525 203.9525
14.7500 109.1671 0.0000 -69.6033 0.0000 0.0100 0.0274 0.0000 0.0000 0.0000 0.0000 1.3042 0.0000 203.6967 203.6967
14.8500 107.2859 0.0000 -69.8591 0.0000 0.0099 0.0269 0.0000 0.0000 0.0000 0.0000 1.3054 0.0000 203.4409 203.4409
14.9500 105.4048 0.0000 -70.1149 0.0000 0.0098 0.0264 0.0000 0.0000 0.0000 0.0000 1.3066 0.0000 203.1851 203.1851
15.0500 103.5237 0.0000 -70.3708 0.0000 0.0097 0.0259 0.0000 0.0000 0.0000 0.0000 1.3078 0.0000 202.9292 202.9292
15.1500 101.6426 0.0000 -70.6266 0.0000 0.0096 0.0254 0.0000 0.0000 0.0000 0.0000 1.3090 0.0000 202.6734 202.6734
15.2500 99.8196 0.0000 -70.8458 0.0000 0.0095 0.0250 0.0000 0.0000 0.0000 0.0000 1.3102 0.0000 202.4542 202.4542
15.3500 98.3972 0.0000 -70.8126 0.0000 0.0094 0.0255 0.0000 0.0000 0.0000 0.0000 1.3114 0.0000 202.4874 202.4874
15.4500 96.9747 0.0000 -70.7794 0.0000 0.0093 0.0260 0.0000 0.0000 0.0000 0.0000 1.3126 0.0000 202.5206 202.5206
15.5500 95.5522 0.0000 -70.7462 0.0000 0.0092 0.0265 0.0000 0.0000 0.0000 0.0000 1.3138 0.0000 202.5538 202.5538
15.6500 94.1297 0.0000 -70.7130 0.0000 0.0092 0.0270 0.0000 0.0000 0.0000 0.0000 1.3150 0.0000 202.5870 202.5870
15.7500 92.7073 0.0000 -70.6798 0.0000 0.0091 0.0276 0.0000 0.0000 0.0000 0.0000 1.3162 0.0000 202.6202 202.6202
15.8500 91.2848 0.0000 -70.6466 0.0000 0.0090 0.0282 0.0000 0.0000 0.0000 0.0000 1.3174 0.0000 202.6534 202.6534
15.9500 89.8623 0.0000 -70.6134 0.0000 0.0089 0.0287 0.0000 0.0000 0.0000 0.0000 1.3186 0.0000 202.6865 202.6865
16.0500 88.4398 0.0000 -70.5803 0.0000 0.0088 0.0293 0.0000 0.0000 0.0000 0.0000 1.3198 0.0000 202.7197 202.7197
16.1500 87.0174 0.0000 -70.5471 0.0000 0.0087 0.0300 0.0000 0.0000 0.0000 0.0000 1.3210 0.0000 202.7529 202.7529
16.2500 85.5949 0.0000 -70.5139 0.0000 0.0085 0.0306 0.0000 0.0000 0.0000 0.0000 1.3222 0.0000 202.7861 202.7861
16.3500 84.1724 0.0000 -70.4807 0.0000 0.0084 0.0313 0.0000 0.0000 0.0000 0.0000 1.3234 0.0000 202.8193 202.8193
16.4500 82.7499 0.0000 -70.4475 0.0000 0.0083 0.0320 0.0000 0.0000 0.0000 0.0000 1.3246 0.0000 202.8525 202.8525
16.5500 81.3275 0.0000 -70.4143 0.0000 0.0082 0.0327 0.0000 0.0000 0.0000 0.0000 1.3258 0.0000 202.8857 202.8857
16.6500 79.9050 0.0000 -70.3811 0.0000 0.0080 0.0334 0.0000 0.0000 0.0000 0.0000 1.3270 0.0000 202.9189 202.9189
16.7500 78.4825 0.0000 -70.3479 0.0000 0.0078 0.0342 0.0000 0.0000 0.0000 0.0000 1.3282 0.0000 202.9521 202.9521
16.8500 77.0600 0.0000 -70.3147 0.0000 0.0077 0.0350 0.0000 0.0000 0.0000 0.0000 1.3294 0.0000 202.9853 202.9853
16.9500 75.6376 0.0000 -70.2815 0.0000 0.0075 0.0359 0.0000 0.0000 0.0000 0.0000 1.3306 0.0000 203.0184 203.0184
17.0500 74.2151 0.0000 -70.2484 0.0000 0.0073 0.0367 0.0000 0.0000 0.0000 0.0000 1.3318 0.0000 203.0516 203.0516
17.1500 72.7926 0.0000 -70.2151 0.0000 0.0071 0.0376 0.0000 0.0000 0.0000 0.0000 1.3330 0.0000 203.0848 203.0848
17.2500 71.3701 0.0000 -70.1820 0.0000 0.0069 0.0386 0.0000 0.0000 0.0000 0.0000 1.3342 0.0000 203.1180 203.1180
