height(km) press(hPa) W(M/S) T(C) T-TE(C) QV(g/kg) SAT(g/kg) QC(g/kg) QH(g/kg) QI(g/kg) "Buoy(1e-2 m/s2)" radius(m) dwdt_entr(unitless) plumeT(K) envT(K)
0.0000 860.9973 26.8622 33.7689 0.3202 5.6169 40.7561 0.0000 0.0000 0.0000 6.8564 1.1288 -0.0449 307.0688 306.7486
0.0500 856.7004 26.8897 33.1863 1.8861 5.6165 39.5793 0.0000 0.0000 0.0000 6.8564 1.1305 -0.0449 306.4863 304.6002
0.1500 847.9058 27.1093 32.1731 4.3655 5.6137 37.6689 0.0000 0.0000 0.0000 9.2439 1.1351 -0.0409 305.4731 301.1076
0.2500 838.4000 27.2363 31.1629 4.0017 5.6103 35.8819 0.0000 0.0000 0.0000 8.4865 1.1399 -0.0541 304.4629 300.4612
0.3500 828.8943 27.3197 30.1546 3.6398 5.6065 34.1772 0.0000 0.0000 0.0000 7.7989 1.1450 -0.0582 303.4546 299.8148
0.4500 819.5138 27.3685 29.1491 3.3380 5.6021 32.5473 0.0000 0.0000 0.0000 7.2290 1.1503 -0.0609 302.4491 299.1111
0.5500 810.2201 27.3950 28.1466 3.0790 5.5972 30.9911 0.0000 0.0000 0.0000 6.7097 1.1555 -0.0612 301.4466 298.3676
0.6500 800.9265 27.4066 27.1470 2.8229 5.5918 29.5083 0.0000 0.0000 0.0000 6.2855 1.1607 -0.0605 300.4470 297.6241
0.7500 791.8744 27.4094 26.1495 2.6470 5.5856 28.0852 0.0000 0.0000 0.0000 5.9657 1.1658 -0.0595 299.4495 296.8024
0.8500 782.8491 27.4052 25.1539 2.4818 5.5787 26.7270 0.0000 0.0000 0.0000 5.6640 1.1708 -0.0583 298.4539 295.9721
0.9500 773.8488 27.3953 24.1601 2.3252 5.5712 25.4307 0.0000 0.0000 0.0000 5.4117 1.1758 -0.0571 297.4601 295.1349
1.0500 765.0149 27.3822 23.1676 2.2161 5.5634 24.1882 0.0000 0.0000 0.0000 5.2036 1.1806 -0.0559 296.4676 294.2515
1.1500 756.1810 27.3660 22.1763 2.1082 5.5554 23.0025 0.0000 0.0000 0.0000 4.9859 1.1854 -0.0547 295.4763 293.3681
1.2500 747.4420 27.3448 21.1864 1.9922 5.5473 21.8686 0.0000 0.0000 0.0000 4.7295 1.1902 -0.0535 294.4864 292.4942
1.3500 738.9240 27.3188 20.1980 1.8556 5.5393 20.7810 0.0000 0.0000 0.0000 4.4474 1.1948 -0.0519 293.4980 291.6424
1.4500 730.4062 27.2897 19.2110 1.7204 5.5313 19.7441 0.0000 0.0000 0.0000 4.1691 1.1993 -0.0499 292.5110 290.7906
1.5500 721.8884 27.2573 18.2255 1.5866 5.5233 18.7557 0.0000 0.0000 0.0000 3.8942 1.2036 -0.0481 291.5255 289.9388
1.6500 713.3704 27.2210 17.2412 1.4541 5.5153 17.8135 0.0000 0.0000 0.0000 3.6226 1.2079 -0.0464 290.5412 289.0870
1.7500 704.8525 27.1808 16.2583 1.3230 5.5073 16.9155 0.0000 0.0000 0.0000 3.3789 1.2120 -0.0449 289.5583 288.2353
1.8500 696.5297 27.1389 15.2764 1.2150 5.4992 16.0547 0.0000 0.0000 0.0000 3.1961 1.2160 -0.0431 288.5764 287.3613
1.9500 688.4652 27.0995 14.2952 1.1371 5.4912 15.2282 0.0000 0.0000 0.0000 3.0491 1.2199 -0.0409 287.5952 286.4581
2.0500 680.4006 27.0636 13.3147 1.0598 5.4833 14.4407 0.0000 0.0000 0.0000 2.9043 1.2235 -0.0385 286.6147 285.5549
2.1500 672.3361 27.0302 12.3349 0.9832 5.4754 13.6903 0.0000 0.0000 0.0000 2.7613 1.2271 -0.0366 285.6349 284.6516
2.2500 664.2717 26.9977 11.3556 0.9072 5.4674 12.9754 0.0000 0.0000 0.0000 2.6199 1.2305 -0.0350 284.6556 283.7484
2.3500 656.2072 26.9652 10.3769 0.8317 5.4593 12.2945 0.0000 0.0000 0.0000 2.4682 1.2338 -0.0338 283.6769 282.8452
2.4500 648.2419 26.9291 9.3988 0.7458 5.4509 11.6443 0.0000 0.0000 0.0000 2.2667 1.2372 -0.0329 282.6988 281.9531
2.5500 640.6083 26.8871 8.4214 0.6232 5.4423 11.0197 0.0000 0.0000 0.0000 2.0262 1.2404 -0.0321 281.7213 281.0981
2.6500 632.9747 26.8389 7.4447 0.5015 5.4332 10.4255 0.0000 0.0000 0.0000 1.7852 1.2436 -0.0315 280.7447 280.2432
2.7500 625.3411 26.7825 6.4688 0.3806 5.4235 9.8606 0.0000 0.0000 0.0000 1.5434 1.2469 -0.0315 279.7687 279.3882
2.8500 617.7075 26.7152 5.4935 0.2603 5.4131 9.3235 0.0000 0.0000 0.0000 1.3007 1.2503 -0.0321 278.7935 278.5332
2.9500 610.0739 26.6355 4.5192 0.1409 5.4018 8.8131 0.0000 0.0000 0.0000 1.0573 1.2537 -0.0332 277.8192 277.6783
3.0500 602.4403 26.5404 3.5457 0.0224 5.3895 8.3282 0.0000 0.0000 0.0000 0.7479 1.2574 -0.0347 276.8457 276.8233
3.1500 595.1267 26.4237 2.5735 -0.1502 5.3760 7.8636 0.0000 0.0000 0.0000 0.3421 1.2613 -0.0364 275.8735 276.0237
3.2500 587.9633 26.2831 1.6029 -0.3472 5.3613 7.4211 0.0000 0.0000 0.0000 -0.0944 1.2654 -0.0381 274.9029 275.2500
3.3500 580.8000 26.1185 0.6341 -0.5423 5.3453 7.0018 0.0000 0.0000 0.0000 -0.5306 1.2696 -0.0398 273.9341 274.4764
3.4500 573.6367 25.9294 -0.3328 -0.7356 5.3280 6.6045 0.0000 0.0000 0.0000 -0.9662 1.2741 -0.0415 272.9672 273.7028
3.5500 566.4734 25.7155 -1.2977 -0.9268 5.3093 6.2283 0.0000 0.0000 0.0000 -1.4006 1.2789 -0.0431 272.0023 272.9291
3.6500 559.3101 25.4768 -2.2602 -1.1157 5.2891 5.8724 0.0000 0.0000 0.0000 -1.8508 1.2838 -0.0447 271.0398 272.1555
3.7500 552.1467 25.2107 -3.2354 -1.3173 5.2736 5.5292 0.0016 0.0000 0.0000 -2.3247 1.2891 -0.0461 270.0645 271.3818
3.8500 545.3312 24.9200 -4.1698 -1.5156 5.2408 5.2168 0.0286 0.0000 0.0000 -2.5896 1.2946 -0.0479 269.1302 270.6458
3.9500 538.6646 24.6158 -4.8726 -1.4984 5.1140 5.0066 0.1361 0.0000 0.0000 -2.5205 1.3006 -0.0500 268.4274 269.9258
4.0500 531.9979 24.3047 -5.4619 -1.3676 4.9407 4.8463 0.2739 0.0000 0.0000 -2.3697 1.3069 -0.0523 267.8381 269.2058
4.1500 525.3312 23.9868 -6.0970 -1.2828 4.7849 4.6741 0.3634 0.0000 0.0000 -2.2560 1.3137 -0.0545 267.2029 268.4858
4.2500 518.6646 23.6608 -6.7178 -1.1836 4.6224 4.5127 0.5040 0.0000 0.0000 -2.1196 1.3209 -0.0566 266.5822 267.7658
4.3500 511.9979 23.3265 -7.3198 -1.0656 4.4515 4.3629 0.6390 0.0000 0.0000 -2.0035 1.3286 -0.0585 265.9802 267.0458
4.4500 505.3312 22.9842 -7.9651 -0.9909 4.2974 4.2035 0.7541 0.0000 0.0000 -1.9475 1.3367 -0.0602 265.3349 266.3258
4.5500 498.7665 22.6292 -8.6059 -0.9326 4.1407 4.0501 0.8692 0.0000 0.0000 -1.9930 1.3453 -0.0618 264.6941 265.6266
4.6500 492.6089 22.2546 -9.2437 -0.9547 3.9812 3.8996 0.9845 0.0000 0.0000 -2.1457 1.3545 -0.0634 264.0562 265.0109
4.7500 486.4512 21.8584 -9.9020 -0.9971 3.8288 3.7482 1.0889 0.0000 0.0000 -2.3241 1.3643 -0.0650 263.3980 264.3951
4.8500 480.2936 21.4394 -10.5624 -1.0417 3.6760 3.6015 1.1889 0.0000 0.0000 -2.5183 1.3746 -0.0662 262.7376 263.7794
4.9500 474.1360 20.9966 -11.2337 -1.0974 3.5267 3.4571 1.2809 0.0000 0.0000 -2.7364 1.3856 -0.0672 262.0663 263.1636
5.0500 467.9783 20.5288 -11.9151 -1.1630 3.3806 3.3153 1.3655 0.0000 0.0000 -2.9752 1.3973 -0.0679 261.3849 262.5478
5.1500 461.8207 20.0347 -12.6046 -1.2367 3.2371 3.1767 1.4435 0.0000 0.0000 -3.2343 1.4096 -0.0683 260.6954 261.9321
5.2500 455.6631 19.5130 -13.3037 -1.3200 3.0970 3.0410 1.5141 0.0000 0.0000 -3.5051 1.4227 -0.0684 259.9963 261.3163
5.3500 449.5478 18.9638 -14.0114 -1.4035 2.9600 2.9084 1.5769 0.0000 0.0000 -3.6765 1.4365 -0.0678 259.2886 260.6921
5.4500 443.9171 18.4067 -14.7205 -1.3918 2.8266 2.7776 1.6391 0.0000 0.0000 -3.7508 1.4502 -0.0646 258.5795 259.9714
5.5500 438.2865 17.8581 -15.4329 -1.3836 2.6975 2.6515 1.6999 0.0000 0.0000 -3.8318 1.4637 -0.0594 257.8671 259.2507
5.6500 432.6559 17.3157 -16.1498 -1.3797 2.5726 2.5296 1.7590 0.0000 0.0000 -3.9207 1.4770 -0.0546 257.1502 258.5299
5.7500 427.0252 16.7770 -16.8712 -1.3804 2.4521 2.4119 1.8161 0.0000 0.0000 -4.0182 1.4901 -0.0502 256.4288 257.8092
5.8500 421.3946 16.2393 -17.5973 -1.3858 2.3357 2.2982 1.8711 0.0000 0.0000 -4.1247 1.5032 -0.0462 255.7027 257.0885
5.9500 415.7640 15.6999 -18.3284 -1.3962 2.2234 2.1885 1.9238 0.0000 0.0000 -4.2406 1.5161 -0.0425 254.9716 256.3678
6.0500 410.1333 15.1558 -19.0644 -1.4115 2.1151 2.0827 1.9740 0.0000 0.0000 -4.3661 1.5290 -0.0391 254.2356 255.6471
6.1500 404.5027 14.6039 -19.8054 -1.4318 2.0107 1.9807 2.0215 0.0000 0.0000 -4.4930 1.5419 -0.0360 253.4946 254.9263
6.2500 398.9780 14.0429 -20.5508 -1.4516 1.9098 1.8820 2.0667 0.0000 0.0000 -4.5898 1.5548 -0.0330 252.7492 254.2008
6.3500 393.8759 13.4802 -21.2989 -1.4547 1.8116 1.7854 2.1131 0.0000 0.0000 -4.6665 1.5669 -0.0291 252.0011 253.4559
6.4500 388.7739 12.9202 -22.0518 -1.4628 1.7169 1.6926 2.1600 0.0000 0.0000 -4.7565 1.5783 -0.0248 251.2482 252.7110
6.5500 383.6718 12.3588 -22.8102 -1.4763 1.6258 1.6034 2.2071 0.0000 0.0000 -4.8608 1.5888 -0.0209 250.4898 251.9661
6.6500 378.5698 11.7914 -23.5739 -1.4951 1.5384 1.5177 2.2548 0.0000 0.0000 -4.9795 1.5984 -0.0174 249.7260 251.2212
6.7500 373.4677 11.2126 -24.3431 -1.5194 1.4545 1.4354 2.3031 0.0000 0.0000 -5.1129 1.6070 -0.0141 248.9569 250.4763
6.8500 368.3657 10.6160 -25.1177 -1.5491 1.3740 1.3565 2.3524 0.0000 0.0000 -5.2613 1.6146 -0.0112 248.1823 249.7314
6.9500 363.2637 9.9931 -25.8977 -1.5842 1.2969 1.2810 2.4031 0.0000 0.0000 -5.4247 1.6212 -0.0085 247.4023 248.9865
7.0500 358.1617 9.3340 -26.6829 -1.6245 1.2230 1.2086 2.4556 0.0000 0.0000 -5.6032 1.6265 -0.0061 246.6171 248.2416
7.1500 353.0596 8.6175 -27.4730 -1.6697 1.1524 1.1394 2.5106 0.0000 0.0000 -5.8580 1.6304 -0.0040 245.8270 247.4967
7.2500 348.1804 7.7898 -28.2675 -1.7664 1.0850 1.0727 2.5680 0.0000 0.0000 -6.2835 1.6330 -0.0022 245.0325 246.7989
7.3500 343.6349 6.7318 -29.0687 -1.9403 1.0224 1.0080 2.6248 0.0000 0.0000 -6.7993 1.6345 -0.0009 244.2313 246.1716
7.4500 339.0895 5.1576 -29.8668 -2.1111 0.9684 0.9470 2.6596 0.0000 0.0000 -7.1402 1.6366 -0.0004 243.4332 245.5443
7.5500 334.5440 2.9447 -30.5640 -2.1811 0.9231 0.8980 2.6067 0.0000 0.0000 -6.7753 1.6372 -0.0004 242.7360 244.9171
7.6500 329.9985 0.8310 -30.8948 -1.8846 0.8555 0.8819 2.3792 0.0000 0.0000 -5.2514 1.6288 -0.0002 242.4052 244.2898
7.7500 325.4531 -0.2807 -30.7961 -1.1587 0.7465 0.9028 2.0067 0.0000 0.0000 -3.2023 1.6082 -0.0001 242.5039 243.6625
7.8500 320.9076 -0.4414 -30.7713 -0.5066 0.6317 0.9178 1.6214 0.0000 0.0000 -1.6959 1.5832 -0.0001 242.5287 243.0352
7.9500 316.3622 -0.3009 -31.0719 -0.1798 0.5352 0.9045 1.2987 0.0000 0.0000 -0.9300 1.5607 -0.0000 242.2281 242.4080
8.0500 311.8167 -0.1686 -31.5753 -0.0560 0.4541 0.8741 1.0383 0.0000 0.0000 -0.5836 1.5418 -0.0000 241.7247 241.7807
8.1500 307.2713 -0.0932 -32.1656 -0.0191 0.3841 0.8376 0.8243 0.0000 0.0000 -0.4281 1.5260 -0.0000 241.1344 241.1534
8.2500 302.7258 -0.0546 -32.7934 -0.0195 0.3233 0.7997 0.6468 0.0000 0.0000 -0.3423 1.5124 -0.0000 240.5066 240.5262
8.3500 298.4077 -0.0323 -33.4596 -0.0198 0.2712 0.7598 0.5008 0.0000 0.0000 -0.2525 1.5001 -0.0000 239.8404 239.8602
8.4500 294.4299 -0.0187 -34.1683 -0.0045 0.2272 0.7180 0.3819 0.0000 0.0000 -0.1717 1.4893 -0.0000 239.1317 239.1362
8.5500 290.4522 -0.0111 -34.8887 -0.0010 0.1901 0.6774 0.2857 0.0000 0.0000 -0.1217 1.4823 -0.0000 238.4113 238.4123
8.6500 286.4745 -0.0068 -35.6117 -0.0001 0.1590 0.6387 0.2089 0.0000 0.0000 -0.0860 1.4800 -0.0000 237.6882 237.6883
8.7500 282.4968 -0.0041 -36.3355 0.0000 0.1336 0.6021 0.1493 0.0000 0.0000 -0.0597 1.4799 -0.0000 236.9644 236.9644
8.8500 278.5190 -0.0025 -37.0595 0.0000 0.1132 0.5673 0.1044 0.0000 0.0000 -0.0406 1.4799 -0.0000 236.2405 236.2404
8.9500 274.5413 -0.0015 -37.7835 0.0000 0.0971 0.5344 0.0714 0.0000 0.0000 -0.0268 1.4782 -0.0000 235.5165 235.5165
9.0500 270.5636 -0.0009 -38.5074 0.0000 0.0845 0.5032 0.0477 0.0000 0.0000 -0.0172 1.4728 -0.0000 234.7926 234.7926
9.1500 266.5858 -0.0005 -39.2314 0.0000 0.0746 0.4736 0.0311 0.0000 0.0000 -0.0107 1.4620 -0.0000 234.0686 234.0686
9.2500 262.6081 -0.0003 -39.9553 0.0000 0.0668 0.4457 0.0197 0.0000 0.0000 -0.0062 1.4437 -0.0000 233.3447 233.3447
9.3500 258.6304 -0.0001 -40.6792 0.0000 0.0605 0.4193 0.0120 0.0000 0.0000 -0.0029 1.4156 -0.0000 232.6208 232.6207
9.4500 254.6527 0.0001 -41.4029 0.0003 0.0553 0.3943 0.0068 0.0000 0.0000 0.0028 1.3752 -0.0000 231.8971 231.8968
9.5500 250.6749 0.0000 -42.1243 0.0028 0.0507 0.3708 0.0030 0.0000 0.0000 0.0000 1.3194 -0.0000 231.1757 231.1728
9.6500 247.0556 0.0000 -42.8271 0.0000 0.0466 0.3488 0.0000 0.0000 0.0000 0.0000 1.2446 0.0000 230.4729 230.4729
9.7500 243.5095 0.0000 -43.5221 0.0000 0.0452 0.3281 0.0000 0.0000 0.0000 0.0000 1.2458 0.0000 229.7778 229.7778
9.8500 239.9634 0.0000 -44.2172 0.0000 0.0438 0.3086 0.0000 0.0000 0.0000 0.0000 1.2470 0.0000 229.0828 229.0828
9.9500 236.4173 0.0000 -44.9122 0.0000 0.0424 0.2901 0.0000 0.0000 0.0000 0.0000 1.2482 0.0000 228.3878 228.3878
10.0500 232.8712 0.0000 -45.6072 0.0000 0.0411 0.2727 0.0000 0.0000 0.0000 0.0000 1.2494 0.0000 227.6927 227.6927
10.1500 229.3251 0.0000 -46.3023 0.0000 0.0397 0.2562 0.0000 0.0000 0.0000 0.0000 1.2506 0.0000 226.9977 226.9977
10.2500 225.7790 0.0000 -46.9973 0.0000 0.0383 0.2406 0.0000 0.0000 0.0000 0.0000 1.2518 0.0000 226.3027 226.3027
10.3500 222.4731 0.0000 -47.6150 0.0000 0.0378 0.2277 0.0000 0.0000 0.0000 0.0000 1.2530 0.0000 225.6850 225.6850
10.4500 219.2347 0.0000 -48.2108 0.0000 0.0375 0.2158 0.0000 0.0000 0.0000 0.0000 1.2542 0.0000 225.0892 225.0892
10.5500 215.9964 0.0000 -48.8067 0.0000 0.0372 0.2046 0.0000 0.0000 0.0000 0.0000 1.2554 0.0000 224.4933 224.4933
10.6500 212.7580 0.0000 -49.4025 0.0000 0.0367 0.1939 0.0000 0.0000 0.0000 0.0000 1.2566 0.0000 223.8975 223.8975
10.7500 209.5197 0.0000 -49.9984 0.0000 0.0362 0.1837 0.0000 0.0000 0.0000 0.0000 1.2578 0.0000 223.3016 223.3016
10.8500 206.2814 0.0000 -50.5942 0.0000 0.0357 0.1740 0.0000 0.0000 0.0000 0.0000 1.2590 0.0000 222.7057 222.7057
10.9500 203.0430 0.0000 -51.1901 0.0000 0.0351 0.1648 0.0000 0.0000 0.0000 0.0000 1.2602 0.0000 222.1099 222.1099
11.0500 199.8238 0.0000 -51.7845 0.0000 0.0344 0.1561 0.0000 0.0000 0.0000 0.0000 1.2614 0.0000 221.5155 221.5155
11.1500 196.9033 0.0000 -52.3570 0.0000 0.0336 0.1479 0.0000 0.0000 0.0000 0.0000 1.2626 0.0000 220.9430 220.9430
11.2500 193.9827 0.0000 -52.9294 0.0000 0.0329 0.1402 0.0000 0.0000 0.0000 0.0000 1.2638 0.0000 220.3706 220.3706
11.3500 191.0622 0.0000 -53.5018 0.0000 0.0321 0.1328 0.0000 0.0000 0.0000 0.0000 1.2650 0.0000 219.7982 219.7982
11.4500 188.1416 0.0000 -54.0742 0.0000 0.0313 0.1258 0.0000 0.0000 0.0000 0.0000 1.2662 0.0000 219.2257 219.2257
11.5500 185.2210 0.0000 -54.6467 0.0000 0.0304 0.1192 0.0000 0.0000 0.0000 0.0000 1.2674 0.0000 218.6533 218.6533
11.6500 182.3005 0.0000 -55.2191 0.0000 0.0296 0.1129 0.0000 0.0000 0.0000 0.0000 1.2686 0.0000 218.0809 218.0809
11.7500 179.3799 0.0000 -55.7915 0.0000 0.0288 0.1068 0.0000 0.0000 0.0000 0.0000 1.2698 0.0000 217.5085 217.5085
11.8500 176.4594 0.0000 -56.3640 0.0000 0.0280 0.1011 0.0000 0.0000 0.0000 0.0000 1.2710 0.0000 216.9360 216.9360
11.9500 173.7065 0.0000 -56.9087 0.0000 0.0267 0.0960 0.0000 0.0000 0.0000 0.0000 1.2722 0.0000 216.3913 216.3913
12.0500 171.1212 0.0000 -57.4258 0.0000 0.0251 0.0913 0.0000 0.0000 0.0000 0.0000 1.2734 0.0000 215.8742 215.8742
12.1500 168.5359 0.0000 -57.9428 0.0000 0.0236 0.0868 0.0000 0.0000 0.0000 0.0000 1.2746 0.0000 215.3572 215.3572
12.2500 165.9506 0.0000 -58.4599 0.0000 0.0222 0.0825 0.0000 0.0000 0.0000 0.0000 1.2758 0.0000 214.8401 214.8401
12.3500 163.3652 0.0000 -58.9769 0.0000 0.0209 0.0784 0.0000 0.0000 0.0000 0.0000 1.2770 0.0000 214.3230 214.3230
12.4500 160.7799 0.0000 -59.4940 0.0000 0.0196 0.0745 0.0000 0.0000 0.0000 0.0000 1.2782 0.0000 213.8060 213.8060
12.5500 158.1946 0.0000 -60.0111 0.0000 0.0184 0.0708 0.0000 0.0000 0.0000 0.0000 1.2794 0.0000 213.2889 213.2889
12.6500 155.6093 0.0000 -60.5281 0.0000 0.0173 0.0673 0.0000 0.0000 0.0000 0.0000 1.2806 0.0000 212.7719 212.7719
12.7500 153.0240 0.0000 -61.0452 0.0000 0.0162 0.0640 0.0000 0.0000 0.0000 0.0000 1.2818 0.0000 212.2548 212.2548
12.8500 150.4387 0.0000 -61.5623 0.0000 0.0152 0.0608 0.0000 0.0000 0.0000 0.0000 1.2830 0.0000 211.7377 211.7377
12.9500 148.1316 0.0000 -62.1358 0.0000 0.0148 0.0572 0.0000 0.0000 0.0000 0.0000 1.2842 0.0000 211.1642 211.1642
13.0500 145.8814 0.0000 -62.7208 0.0000 0.0145 0.0537 0.0000 0.0000 0.0000 0.0000 1.2854 0.0000 210.5791 210.5791
13.1500 143.6311 0.0000 -63.3059 0.0000 0.0141 0.0504 0.0000 0.0000 0.0000 0.0000 1.2866 0.0000 209.9941 209.9941
13.2500 141.3809 0.0000 -63.8910 0.0000 0.0138 0.0473 0.0000 0.0000 0.0000 0.0000 1.2878 0.0000 209.4090 209.4090
13.3500 139.1307 0.0000 -64.4760 0.0000 0.0134 0.0444 0.0000 0.0000 0.0000 0.0000 1.2890 0.0000 208.8240 208.8240
13.4500 136.8805 0.0000 -65.0611 0.0000 0.0130 0.0416 0.0000 0.0000 0.0000 0.0000 1.2902 0.0000 208.2389 208.2389
13.5500 134.6302 0.0000 -65.6461 0.0000 0.0126 0.0390 0.0000 0.0000 0.0000 0.0000 1.2914 0.0000 207.6539 207.6539
13.6500 132.3800 0.0000 -66.2312 0.0000 0.0122 0.0366 0.0000 0.0000 0.0000 0.0000 1.2926 0.0000 207.0688 207.0688
13.7500 130.1298 0.0000 -66.8163 0.0000 0.0118 0.0343 0.0000 0.0000 0.0000 0.0000 1.2938 0.0000 206.4837 206.4837
13.8500 127.8796 0.0000 -67.4013 0.0000 0.0114 0.0321 0.0000 0.0000 0.0000 0.0000 1.2950 0.0000 205.8987 205.8987
13.9500 125.6293 0.0000 -67.9864 0.0000 0.0110 0.0301 0.0000 0.0000 0.0000 0.0000 1.2962 0.0000 205.3136 205.3136
14.0500 123.6460 0.0000 -68.2746 0.0000 0.0109 0.0293 0.0000 0.0000 0.0000 0.0000 1.2974 0.0000 205.0254 205.0254
14.1500 121.7663 0.0000 -68.4475 0.0000 0.0108 0.0291 0.0000 0.0000 0.0000 0.0000 1.2986 0.0000 204.8525 204.8525
14.2500 119.8866 0.0000 -68.6204 0.0000 0.0107 0.0288 0.0000 0.0000 0.0000 0.0000 1.2998 0.0000 204.6796 204.6796
14.3500 118.0069 0.0000 -68.7934 0.0000 0.0106 0.0285 0.0000 0.0000 0.0000 0.0000 1.3010 0.0000 204.5066 204.5066
14.4500 116.1272 0.0000 -68.9663 0.0000 0.0105 0.0283 0.0000 0.0000 0.0000 0.0000 1.3022 0.0000 204.3337 204.3337
14.5500 114.2475 0.0000 -69.1392 0.0000 0.0104 0.0280 0.0000 0.0000 0.0000 0.0000 1.3034 0.0000 204.1608 204.1608
14.6500 112.3678 0.0000 -69.3121 0.0000 0.0103 0.0278 0.0000 0.0000 0.0000 0.0000 1.3046 0.0000 203.9878 203.9878
14.7500 110.4881 0.0000 -69.4851 0.0000 0.0102 0.0276 0.0000 0.0000 0.0000 0.0000 1.3058 0.0000 203.8149 203.8149
14.8500 108.6084 0.0000 -69.6580 0.0000 0.0101 0.0273 0.0000 0.0000 0.0000 0.0000 1.3070 0.0000 203.6420 203.6420
14.9500 106.7287 0.0000 -69.8309 0.0000 0.0100 0.0271 0.0000 0.0000 0.0000 0.0000 1.3082 0.0000 203.4690 203.4690
15.0500 104.8490 0.0000 -70.0039 0.0000 0.0100 0.0269 0.0000 0.0000 0.0000 0.0000 1.3094 0.0000 203.2961 203.2961
15.1500 102.9693 0.0000 -70.1768 0.0000 0.0099 0.0267 0.0000 0.0000 0.0000 0.0000 1.3106 0.0000 203.1232 203.1232
15.2500 101.0896 0.0000 -70.3497 0.0000 0.0098 0.0266 0.0000 0.0000 0.0000 0.0000 1.3118 0.0000 202.9502 202.9502
15.3500 99.4021 0.0000 -70.4341 0.0000 0.0098 0.0267 0.0000 0.0000 0.0000 0.0000 1.3130 0.0000 202.8659 202.8659
15.4500 97.9796 0.0000 -70.3961 0.0000 0.0097 0.0272 0.0000 0.0000 0.0000 0.0000 1.3142 0.0000 202.9039 202.9039
15.5500 96.5572 0.0000 -70.3582 0.0000 0.0096 0.0278 0.0000 0.0000 0.0000 0.0000 1.3154 0.0000 202.9418 202.9418
15.6500 95.1347 0.0000 -70.3203 0.0000 0.0095 0.0283 0.0000 0.0000 0.0000 0.0000 1.3166 0.0000 202.9797 202.9797
15.7500 93.7122 0.0000 -70.2823 0.0000 0.0094 0.0289 0.0000 0.0000 0.0000 0.0000 1.3178 0.0000 203.0177 203.0177
15.8500 92.2897 0.0000 -70.2444 0.0000 0.0093 0.0295 0.0000 0.0000 0.0000 0.0000 1.3190 0.0000 203.0556 203.0556
15.9500 90.8673 0.0000 -70.2065 0.0000 0.0092 0.0302 0.0000 0.0000 0.0000 0.0000 1.3202 0.0000 203.0935 203.0935
16.0500 89.4448 0.0000 -70.1685 0.0000 0.0091 0.0308 0.0000 0.0000 0.0000 0.0000 1.3214 0.0000 203.1315 203.1315
16.1500 88.0223 0.0000 -70.1306 0.0000 0.0090 0.0315 0.0000 0.0000 0.0000 0.0000 1.3226 0.0000 203.1694 203.1694
16.2500 86.5998 0.0000 -70.0927 0.0000 0.0089 0.0322 0.0000 0.0000 0.0000 0.0000 1.3238 0.0000 203.2073 203.2073
16.3500 85.1774 0.0000 -70.0547 0.0000 0.0088 0.0329 0.0000 0.0000 0.0000 0.0000 1.3250 0.0000 203.2453 203.2453
16.4500 83.7549 0.0000 -70.0168 0.0000 0.0086 0.0337 0.0000 0.0000 0.0000 0.0000 1.3262 0.0000 203.2832 203.2832
16.5500 82.3324 0.0000 -69.9789 0.0000 0.0085 0.0344 0.0000 0.0000 0.0000 0.0000 1.3274 0.0000 203.3211 203.3211
16.6500 80.9099 0.0000 -69.9409 0.0000 0.0083 0.0352 0.0000 0.0000 0.0000 0.0000 1.3286 0.0000 203.3591 203.3591
16.7500 79.4875 0.0000 -69.9030 0.0000 0.0082 0.0361 0.0000 0.0000 0.0000 0.0000 1.3298 0.0000 203.3970 203.3970
16.8500 78.0650 0.0000 -69.8651 0.0000 0.0080 0.0369 0.0000 0.0000 0.0000 0.0000 1.3310 0.0000 203.4349 203.4349
16.9500 76.6425 0.0000 -69.8271 0.0000 0.0078 0.0378 0.0000 0.0000 0.0000 0.0000 1.3322 0.0000 203.4729 203.4729
17.0500 75.2200 0.0000 -69.7892 0.0000 0.0076 0.0387 0.0000 0.0000 0.0000 0.0000 1.3334 0.0000 203.5108 203.5108
