height(km) press(hPa) W(M/S) T(C) T-TE(C) QV(g/kg) SAT(g/kg) QC(g/kg) QH(g/kg) QI(g/kg) "Buoy(1e-2 m/s2)" radius(m) dwdt_entr(unitless) plumeT(K) envT(K)
0.0000 859.9973 26.9133 21.9684 0.3164 4.2648 19.8746 0.0000 0.0000 0.0000 -12.2487 1.1026 -0.0385 295.2683 294.9519
0.0500 855.6113 26.3748 21.1961 -3.4382 4.2645 19.0311 0.0000 0.0000 0.0000 -12.2487 1.1050 -0.0385 294.4961 297.9344
0.1500 846.5750 25.5944 20.2803 -7.8957 4.2624 18.1565 0.0000 0.0000 0.0000 -17.1504 1.1083 -0.0321 293.5803 301.4760
0.2500 837.0692 24.7612 19.3703 -8.0453 4.2600 17.3344 0.0000 0.0000 0.0000 -17.5041 1.1120 -0.0347 292.6703 300.7155
0.3500 827.5635 23.8792 18.4666 -8.1885 4.2572 16.5526 0.0000 0.0000 0.0000 -17.8738 1.1160 -0.0355 291.7666 299.9551
0.4500 818.2379 22.9416 17.5696 -8.3394 4.2545 15.8059 0.0000 0.0000 0.0000 -18.2676 1.1203 -0.0362 290.8696 299.2090
0.5500 808.9786 21.9431 16.6799 -8.4884 4.2520 15.0954 0.0000 0.0000 0.0000 -18.6530 1.1250 -0.0363 289.9799 298.4683
0.6500 799.7254 20.8786 15.7983 -8.6286 4.2499 14.4212 0.0000 0.0000 0.0000 -18.9944 1.1300 -0.0361 289.0983 297.7269
0.7500 790.6675 19.7403 14.9261 -8.7400 4.2479 13.7791 0.0000 0.0000 0.0000 -19.2897 1.1356 -0.0357 288.2260 296.9661
0.8500 781.6095 18.5166 14.0645 -8.8407 4.2460 13.1721 0.0000 0.0000 0.0000 -19.5362 1.1418 -0.0349 287.3645 296.2052
0.9500 772.6204 17.1971 13.2151 -8.9065 4.2442 12.5982 0.0000 0.0000 0.0000 -19.6709 1.1485 -0.0338 286.5151 295.4216
1.0500 763.8176 15.7652 12.3797 -8.8968 4.2431 12.0551 0.0000 0.0000 0.0000 -19.7082 1.1562 -0.0322 285.6797 294.5765
1.1500 755.0148 14.1878 11.5614 -8.8701 4.2426 11.5463 0.0000 0.0000 0.0000 -19.6966 1.1649 -0.0301 284.8614 293.7314
1.2500 746.3408 12.4067 10.7650 -8.8192 4.2428 11.0714 0.0000 0.0000 0.0000 -19.6126 1.1749 -0.0271 284.0649 292.8841
1.3500 737.8375 10.2238 10.0058 -8.7279 4.2440 10.6387 0.0000 0.0000 0.0000 -19.3282 1.1872 -0.0227 283.3058 292.0338
1.4500 729.3340 7.1809 9.3827 -8.5007 4.2454 10.3168 0.0000 0.0000 0.0000 -18.2869 1.2103 -0.0159 282.6827 291.1834
1.5500 720.8307 3.4035 9.2918 -7.7412 4.2421 10.3758 0.0000 0.0000 0.0000 -15.5012 1.2807 -0.0071 282.5918 290.3331
1.6500 712.3272 0.3359 10.2104 -5.9724 4.2241 11.1810 0.0000 0.0000 0.0000 -10.8780 1.4394 -0.0006 283.5104 289.4827
1.7500 703.8239 -0.9356 11.7332 -3.5992 4.1923 12.5473 0.0000 0.0000 0.0000 -6.1560 1.6432 -0.0014 285.0332 288.6324
1.8500 695.5691 -0.8979 12.6995 -1.7632 4.1575 13.5503 0.0000 0.0000 0.0000 -2.9797 1.8147 -0.0010 285.9995 287.7626
1.9500 687.5176 -0.5458 12.8044 -0.7725 4.1240 13.8091 0.0000 0.0000 0.0000 -1.3523 1.9372 -0.0005 286.1044 286.8769
2.0500 679.4660 -0.2729 12.3770 -0.3143 4.0903 13.5818 0.0000 0.0000 0.0000 -0.6193 2.0256 -0.0002 285.6770 285.9913
2.1500 671.4146 -0.1235 11.6875 -0.1181 4.0542 13.1253 0.0000 0.0000 0.0000 -0.3131 2.0918 -0.0001 284.9875 285.1056
2.2500 663.3630 -0.0550 10.8815 -0.0385 4.0143 12.5832 0.0000 0.0000 0.0000 -0.1888 2.1419 -0.0000 284.1815 284.2199
2.3500 655.3115 -0.0269 10.0307 -0.0035 3.9696 12.0247 0.0000 0.0000 0.0000 -0.1374 2.1787 -0.0000 283.3307 283.3343
2.4500 647.4140 -0.0165 9.1747 0.0092 3.9198 11.4817 0.0000 0.0000 0.0000 -0.1268 2.2032 -0.0000 282.4747 282.4655
2.5500 639.8152 -0.0126 8.3324 0.0027 3.8646 10.9660 0.0000 0.0000 0.0000 -0.1297 2.2159 -0.0000 281.6324 281.6297
2.6500 632.2164 -0.0105 7.4945 0.0007 3.8041 10.4745 0.0000 0.0000 0.0000 -0.1268 2.2164 -0.0000 280.7945 280.7938
2.7500 624.6177 -0.0090 6.6581 0.0001 3.7384 10.0037 0.0000 0.0000 0.0000 -0.1232 2.2040 -0.0000 279.9581 279.9579
2.8500 617.0189 -0.0079 5.8219 -0.0002 3.6673 9.5523 0.0000 0.0000 0.0000 -0.1212 2.1776 -0.0000 279.1219 279.1221
2.9500 609.4201 -0.0071 4.9853 -0.0009 3.5906 9.1190 0.0000 0.0000 0.0000 -0.1240 2.1361 -0.0000 278.2853 278.2862
3.0500 601.8214 -0.0058 4.1464 -0.0040 3.5081 8.7019 0.0000 0.0000 0.0000 -0.1127 2.0777 -0.0000 277.4464 277.4503
3.1500 594.5692 -0.0040 3.2964 -0.0019 3.4189 8.2907 0.0000 0.0000 0.0000 -0.0829 2.0002 -0.0000 276.5964 276.5983
3.2500 587.4263 -0.0025 2.4408 -0.0004 3.3235 7.8922 0.0000 0.0000 0.0000 -0.0558 1.8998 -0.0000 275.7408 275.7411
3.3500 580.2834 -0.0015 1.5839 -0.0001 3.2226 7.5102 0.0000 0.0000 0.0000 -0.0349 1.7713 -0.0000 274.8839 274.8840
3.4500 573.1406 -0.0007 0.7268 -0.0000 3.1169 7.1447 0.0000 0.0000 0.0000 -0.0184 1.6085 -0.0000 274.0268 274.0269
3.5500 565.9978 -0.0001 -0.1302 0.0000 3.0076 6.7952 0.0000 0.0000 0.0000 0.0000 1.4036 -0.0000 273.1697 273.1697
3.6500 558.8549 0.0000 -0.9874 0.0000 2.8960 6.4611 0.0000 0.0000 0.0000 0.0000 1.1464 0.0000 272.3126 272.3126
3.7500 551.7120 0.0000 -1.8445 0.0000 2.7617 6.1417 0.0000 0.0000 0.0000 0.0000 1.1476 0.0000 271.4554 271.4554
3.8500 544.9312 0.0000 -2.5366 0.0000 2.5676 5.9053 0.0000 0.0000 0.0000 0.0000 1.1488 0.0000 270.7634 270.7634
3.9500 538.2645 0.0000 -3.1766 0.0000 2.3636 5.6983 0.0000 0.0000 0.0000 0.0000 1.1500 0.0000 270.1234 270.1234
4.0500 531.5978 0.0000 -3.8166 0.0000 2.1706 5.4981 0.0000 0.0000 0.0000 0.0000 1.1512 0.0000 269.4834 269.4834
4.1500 524.9312 0.0000 -4.4566 0.0000 1.9880 5.3043 0.0000 0.0000 0.0000 0.0000 1.1524 0.0000 268.8434 268.8434
4.2500 518.2645 0.0000 -5.0966 0.0000 1.8155 5.1170 0.0000 0.0000 0.0000 0.0000 1.1536 0.0000 268.2034 268.2034
4.3500 511.5979 0.0000 -5.7366 0.0000 1.6525 4.9358 0.0000 0.0000 0.0000 0.0000 1.1548 0.0000 267.5634 267.5634
4.4500 504.9312 0.0000 -6.3766 0.0000 1.4986 4.7605 0.0000 0.0000 0.0000 0.0000 1.1560 0.0000 266.9234 266.9234
4.5500 498.4030 0.0000 -7.0033 0.0000 1.3461 4.5946 0.0000 0.0000 0.0000 0.0000 1.1572 0.0000 266.2967 266.2967
4.6500 492.2680 0.0000 -7.5923 0.0000 1.1819 4.4436 0.0000 0.0000 0.0000 0.0000 1.1584 0.0000 265.7077 265.7077
4.7500 486.1331 0.0000 -8.1812 0.0000 1.0270 4.2972 0.0000 0.0000 0.0000 0.0000 1.1596 0.0000 265.1187 265.1187
4.8500 479.9980 0.0000 -8.7702 0.0000 0.8809 4.1554 0.0000 0.0000 0.0000 0.0000 1.1608 0.0000 264.5298 264.5298
4.9500 473.8631 0.0000 -9.3592 0.0000 0.7433 4.0180 0.0000 0.0000 0.0000 0.0000 1.1620 0.0000 263.9408 263.9408
5.0500 467.7281 0.0000 -9.9481 0.0000 0.6138 3.8849 0.0000 0.0000 0.0000 0.0000 1.1632 0.0000 263.3519 263.3519
5.1500 461.5931 0.0000 -10.5370 0.0000 0.4921 3.7559 0.0000 0.0000 0.0000 0.0000 1.1644 0.0000 262.7629 262.7629
5.2500 455.4581 0.0000 -11.1260 0.0000 0.3777 3.6310 0.0000 0.0000 0.0000 0.0000 1.1656 0.0000 262.1740 262.1740
5.3500 449.3802 0.0000 -11.7380 0.0000 0.2794 3.5031 0.0000 0.0000 0.0000 0.0000 1.1668 0.0000 261.5620 261.5620
5.4500 443.7622 0.0000 -12.5358 0.0000 0.2577 3.3252 0.0000 0.0000 0.0000 0.0000 1.1680 0.0000 260.7642 260.7642
5.5500 438.1443 0.0000 -13.3335 0.0000 0.2375 3.1555 0.0000 0.0000 0.0000 0.0000 1.1692 0.0000 259.9665 259.9665
5.6500 432.5263 0.0000 -14.1313 0.0000 0.2186 2.9936 0.0000 0.0000 0.0000 0.0000 1.1704 0.0000 259.1687 259.1687
5.7500 426.9083 0.0000 -14.9290 0.0000 0.2009 2.8392 0.0000 0.0000 0.0000 0.0000 1.1716 0.0000 258.3710 258.3710
5.8500 421.2903 0.0000 -15.7268 0.0000 0.1844 2.6920 0.0000 0.0000 0.0000 0.0000 1.1728 0.0000 257.5732 257.5732
5.9500 415.6724 0.0000 -16.5245 0.0000 0.1691 2.5516 0.0000 0.0000 0.0000 0.0000 1.1740 0.0000 256.7755 256.7755
6.0500 410.0544 0.0000 -17.3223 0.0000 0.1548 2.4179 0.0000 0.0000 0.0000 0.0000 1.1752 0.0000 255.9777 255.9777
6.1500 404.4364 0.0000 -18.1200 0.0000 0.1415 2.2905 0.0000 0.0000 0.0000 0.0000 1.1764 0.0000 255.1800 255.1800
6.2500 398.9280 0.0000 -18.8979 0.0000 0.1303 2.1723 0.0000 0.0000 0.0000 0.0000 1.1776 0.0000 254.4021 254.4021
6.3500 393.8312 0.0000 -19.6013 0.0000 0.1243 2.0708 0.0000 0.0000 0.0000 0.0000 1.1788 0.0000 253.6987 253.6987
6.4500 388.7344 0.0000 -20.3047 0.0000 0.1184 1.9737 0.0000 0.0000 0.0000 0.0000 1.1800 0.0000 252.9953 252.9953
6.5500 383.6375 0.0000 -21.0080 0.0000 0.1128 1.8806 0.0000 0.0000 0.0000 0.0000 1.1812 0.0000 252.2920 252.2920
6.6500 378.5407 0.0000 -21.7114 0.0000 0.1075 1.7916 0.0000 0.0000 0.0000 0.0000 1.1824 0.0000 251.5886 251.5886
6.7500 373.4438 0.0000 -22.4147 0.0000 0.1024 1.7064 0.0000 0.0000 0.0000 0.0000 1.1836 0.0000 250.8852 250.8852
6.8500 368.3470 0.0000 -23.1181 0.0000 0.0975 1.6249 0.0000 0.0000 0.0000 0.0000 1.1848 0.0000 250.1819 250.1819
6.9500 363.2502 0.0000 -23.8215 0.0000 0.0928 1.5470 0.0000 0.0000 0.0000 0.0000 1.1860 0.0000 249.4785 249.4785
7.0500 358.1533 0.0000 -24.5248 0.0000 0.0884 1.4725 0.0000 0.0000 0.0000 0.0000 1.1872 0.0000 248.7751 248.7751
7.1500 353.0565 0.0000 -25.2282 0.0000 0.0841 1.4013 0.0000 0.0000 0.0000 0.0000 1.1884 0.0000 248.0718 248.0718
7.2500 348.1804 0.0000 -25.9084 0.0000 0.0801 1.3353 0.0000 0.0000 0.0000 0.0000 1.1896 0.0000 247.3916 247.3916
7.3500 343.6349 0.0000 -26.5538 0.0000 0.0765 1.2749 0.0000 0.0000 0.0000 0.0000 1.1908 0.0000 246.7462 246.7462
7.4500 339.0895 0.0000 -27.1993 0.0000 0.0730 1.2171 0.0000 0.0000 0.0000 0.0000 1.1920 0.0000 246.1007 246.1007
7.5500 334.5440 0.0000 -27.8447 0.0000 0.0697 1.1616 0.0000 0.0000 0.0000 0.0000 1.1932 0.0000 245.4552 245.4552
7.6500 329.9985 0.0000 -28.4902 0.0000 0.0665 1.1085 0.0000 0.0000 0.0000 0.0000 1.1944 0.0000 244.8098 244.8098
7.7500 325.4531 0.0000 -29.1357 0.0000 0.0635 1.0577 0.0000 0.0000 0.0000 0.0000 1.1956 0.0000 244.1643 244.1643
7.8500 320.9076 0.0000 -29.7811 0.0000 0.0605 1.0089 0.0000 0.0000 0.0000 0.0000 1.1968 0.0000 243.5189 243.5189
7.9500 316.3622 0.0000 -30.4266 0.0000 0.0577 0.9623 0.0000 0.0000 0.0000 0.0000 1.1980 0.0000 242.8734 242.8734
8.0500 311.8167 0.0000 -31.0720 0.0000 0.0551 0.9176 0.0000 0.0000 0.0000 0.0000 1.1992 0.0000 242.2280 242.2280
8.1500 307.2713 0.0000 -31.7175 0.0000 0.0525 0.8749 0.0000 0.0000 0.0000 0.0000 1.2004 0.0000 241.5825 241.5825
8.2500 302.7258 0.0000 -32.3629 0.0000 0.0500 0.8340 0.0000 0.0000 0.0000 0.0000 1.2016 0.0000 240.9371 240.9371
8.3500 298.4114 0.0000 -33.0328 0.0000 0.0483 0.7924 0.0000 0.0000 0.0000 0.0000 1.2028 0.0000 240.2672 240.2672
8.4500 294.4432 0.0000 -33.7391 0.0000 0.0474 0.7491 0.0000 0.0000 0.0000 0.0000 1.2040 0.0000 239.5609 239.5609
8.5500 290.4749 0.0000 -34.4455 0.0000 0.0465 0.7080 0.0000 0.0000 0.0000 0.0000 1.2052 0.0000 238.8545 238.8545
8.6500 286.5067 0.0000 -35.1518 0.0000 0.0455 0.6689 0.0000 0.0000 0.0000 0.0000 1.2064 0.0000 238.1482 238.1482
8.7500 282.5384 0.0000 -35.8582 0.0000 0.0445 0.6318 0.0000 0.0000 0.0000 0.0000 1.2076 0.0000 237.4418 237.4418
8.8500 278.5702 0.0000 -36.5645 0.0000 0.0435 0.5965 0.0000 0.0000 0.0000 0.0000 1.2088 0.0000 236.7355 236.7355
8.9500 274.6019 0.0000 -37.2709 0.0000 0.0424 0.5631 0.0000 0.0000 0.0000 0.0000 1.2100 0.0000 236.0291 236.0291
9.0500 270.6336 0.0000 -37.9772 0.0000 0.0412 0.5314 0.0000 0.0000 0.0000 0.0000 1.2112 0.0000 235.3228 235.3228
9.1500 266.6654 0.0000 -38.6836 0.0000 0.0401 0.5013 0.0000 0.0000 0.0000 0.0000 1.2124 0.0000 234.6164 234.6164
9.2500 262.6971 0.0000 -39.3899 0.0000 0.0389 0.4728 0.0000 0.0000 0.0000 0.0000 1.2136 0.0000 233.9101 233.9101
9.3500 258.7289 0.0000 -40.0963 0.0000 0.0378 0.4457 0.0000 0.0000 0.0000 0.0000 1.2148 0.0000 233.2037 233.2037
9.4500 254.7606 0.0000 -40.8026 0.0000 0.0366 0.4201 0.0000 0.0000 0.0000 0.0000 1.2160 0.0000 232.4974 232.4974
9.5500 250.7924 0.0000 -41.5090 0.0000 0.0354 0.3959 0.0000 0.0000 0.0000 0.0000 1.2172 0.0000 231.7910 231.7910
9.6500 247.1700 0.0000 -42.1934 0.0000 0.0353 0.3733 0.0000 0.0000 0.0000 0.0000 1.2184 0.0000 231.1066 231.1066
9.7500 243.6340 0.0000 -42.8723 0.0000 0.0353 0.3519 0.0000 0.0000 0.0000 0.0000 1.2196 0.0000 230.4277 230.4277
9.8500 240.0979 0.0000 -43.5512 0.0000 0.0351 0.3317 0.0000 0.0000 0.0000 0.0000 1.2208 0.0000 229.7488 229.7488
9.9500 236.5618 0.0000 -44.2301 0.0000 0.0349 0.3126 0.0000 0.0000 0.0000 0.0000 1.2220 0.0000 229.0699 229.0699
10.0500 233.0258 0.0000 -44.9091 0.0000 0.0345 0.2944 0.0000 0.0000 0.0000 0.0000 1.2232 0.0000 228.3909 228.3909
10.1500 229.4897 0.0000 -45.5880 0.0000 0.0341 0.2773 0.0000 0.0000 0.0000 0.0000 1.2244 0.0000 227.7120 227.7120
10.2500 225.9536 0.0000 -46.2669 0.0000 0.0335 0.2610 0.0000 0.0000 0.0000 0.0000 1.2256 0.0000 227.0331 227.0331
10.3500 222.6380 0.0000 -46.9413 0.0000 0.0338 0.2456 0.0000 0.0000 0.0000 0.0000 1.2268 0.0000 226.3587 226.3587
10.4500 219.4039 0.0000 -47.6140 0.0000 0.0341 0.2309 0.0000 0.0000 0.0000 0.0000 1.2280 0.0000 225.6860 225.6860
10.5500 216.1697 0.0000 -48.2867 0.0000 0.0343 0.2170 0.0000 0.0000 0.0000 0.0000 1.2292 0.0000 225.0133 225.0133
10.6500 212.9356 0.0000 -48.9594 0.0000 0.0344 0.2039 0.0000 0.0000 0.0000 0.0000 1.2304 0.0000 224.3406 224.3406
10.7500 209.7014 0.0000 -49.6321 0.0000 0.0343 0.1915 0.0000 0.0000 0.0000 0.0000 1.2316 0.0000 223.6679 223.6679
10.8500 206.4673 0.0000 -50.3048 0.0000 0.0340 0.1799 0.0000 0.0000 0.0000 0.0000 1.2328 0.0000 222.9952 222.9952
10.9500 203.2331 0.0000 -50.9775 0.0000 0.0337 0.1688 0.0000 0.0000 0.0000 0.0000 1.2340 0.0000 222.3225 222.3225
11.0500 199.9991 0.0000 -51.6502 0.0000 0.0333 0.1585 0.0000 0.0000 0.0000 0.0000 1.2352 0.0000 221.6498 221.6498
11.1500 197.0819 0.0000 -52.1752 0.0000 0.0330 0.1511 0.0000 0.0000 0.0000 0.0000 1.2364 0.0000 221.1247 221.1247
11.2500 194.1647 0.0000 -52.7003 0.0000 0.0326 0.1440 0.0000 0.0000 0.0000 0.0000 1.2376 0.0000 220.5997 220.5997
11.3500 191.2476 0.0000 -53.2254 0.0000 0.0322 0.1372 0.0000 0.0000 0.0000 0.0000 1.2388 0.0000 220.0746 220.0746
11.4500 188.3305 0.0000 -53.7505 0.0000 0.0317 0.1308 0.0000 0.0000 0.0000 0.0000 1.2400 0.0000 219.5495 219.5495
11.5500 185.4133 0.0000 -54.2756 0.0000 0.0313 0.1246 0.0000 0.0000 0.0000 0.0000 1.2412 0.0000 219.0244 219.0244
11.6500 182.4962 0.0000 -54.8007 0.0000 0.0307 0.1187 0.0000 0.0000 0.0000 0.0000 1.2424 0.0000 218.4993 218.4993
11.7500 179.5790 0.0000 -55.3258 0.0000 0.0302 0.1131 0.0000 0.0000 0.0000 0.0000 1.2436 0.0000 217.9742 217.9742
11.8500 176.6618 0.0000 -55.8509 0.0000 0.0297 0.1077 0.0000 0.0000 0.0000 0.0000 1.2448 0.0000 217.4491 217.4491
11.9500 173.8886 0.0000 -56.3856 0.0000 0.0286 0.1024 0.0000 0.0000 0.0000 0.0000 1.2460 0.0000 216.9144 216.9144
12.0500 171.3060 0.0000 -56.9331 0.0000 0.0270 0.0970 0.0000 0.0000 0.0000 0.0000 1.2472 0.0000 216.3669 216.3669
12.1500 168.7234 0.0000 -57.4807 0.0000 0.0255 0.0919 0.0000 0.0000 0.0000 0.0000 1.2484 0.0000 215.8193 215.8193
12.2500 166.1407 0.0000 -58.0282 0.0000 0.0241 0.0871 0.0000 0.0000 0.0000 0.0000 1.2496 0.0000 215.2718 215.2718
12.3500 163.5581 0.0000 -58.5757 0.0000 0.0227 0.0825 0.0000 0.0000 0.0000 0.0000 1.2508 0.0000 214.7243 214.7243
12.4500 160.9754 0.0000 -59.1232 0.0000 0.0214 0.0781 0.0000 0.0000 0.0000 0.0000 1.2520 0.0000 214.1768 214.1768
12.5500 158.3928 0.0000 -59.6707 0.0000 0.0202 0.0740 0.0000 0.0000 0.0000 0.0000 1.2532 0.0000 213.6293 213.6293
12.6500 155.8101 0.0000 -60.2182 0.0000 0.0191 0.0700 0.0000 0.0000 0.0000 0.0000 1.2544 0.0000 213.0817 213.0817
12.7500 153.2275 0.0000 -60.7658 0.0000 0.0180 0.0663 0.0000 0.0000 0.0000 0.0000 1.2556 0.0000 212.5342 212.5342
12.8500 150.6448 0.0000 -61.3133 0.0000 0.0170 0.0627 0.0000 0.0000 0.0000 0.0000 1.2568 0.0000 211.9867 211.9867
12.9500 148.3162 0.0000 -61.8676 0.0000 0.0163 0.0592 0.0000 0.0000 0.0000 0.0000 1.2580 0.0000 211.4324 211.4324
13.0500 146.0720 0.0000 -62.4241 0.0000 0.0157 0.0558 0.0000 0.0000 0.0000 0.0000 1.2592 0.0000 210.8758 210.8758
13.1500 143.8278 0.0000 -62.9807 0.0000 0.0151 0.0526 0.0000 0.0000 0.0000 0.0000 1.2604 0.0000 210.3193 210.3193
13.2500 141.5837 0.0000 -63.5372 0.0000 0.0145 0.0496 0.0000 0.0000 0.0000 0.0000 1.2616 0.0000 209.7627 209.7627
13.3500 139.3395 0.0000 -64.0938 0.0000 0.0140 0.0467 0.0000 0.0000 0.0000 0.0000 1.2628 0.0000 209.2062 209.2062
13.4500 137.0953 0.0000 -64.6504 0.0000 0.0135 0.0440 0.0000 0.0000 0.0000 0.0000 1.2640 0.0000 208.6496 208.6496
13.5500 134.8512 0.0000 -65.2069 0.0000 0.0129 0.0414 0.0000 0.0000 0.0000 0.0000 1.2652 0.0000 208.0931 208.0931
13.6500 132.6070 0.0000 -65.7635 0.0000 0.0124 0.0390 0.0000 0.0000 0.0000 0.0000 1.2664 0.0000 207.5365 207.5365
13.7500 130.3628 0.0000 -66.3200 0.0000 0.0119 0.0367 0.0000 0.0000 0.0000 0.0000 1.2676 0.0000 206.9800 206.9800
13.8500 128.1187 0.0000 -66.8766 0.0000 0.0114 0.0345 0.0000 0.0000 0.0000 0.0000 1.2688 0.0000 206.4234 206.4234
13.9500 125.8745 0.0000 -67.4331 0.0000 0.0110 0.0325 0.0000 0.0000 0.0000 0.0000 1.2700 0.0000 205.8669 205.8669
14.0500 123.8528 0.0000 -67.8106 0.0000 0.0107 0.0313 0.0000 0.0000 0.0000 0.0000 1.2712 0.0000 205.4894 205.4894
14.1500 121.9731 0.0000 -68.0738 0.0000 0.0107 0.0306 0.0000 0.0000 0.0000 0.0000 1.2724 0.0000 205.2262 205.2262
14.2500 120.0934 0.0000 -68.3369 0.0000 0.0106 0.0299 0.0000 0.0000 0.0000 0.0000 1.2736 0.0000 204.9631 204.9631
14.3500 118.2137 0.0000 -68.6001 0.0000 0.0105 0.0293 0.0000 0.0000 0.0000 0.0000 1.2748 0.0000 204.6999 204.6999
14.4500 116.3340 0.0000 -68.8632 0.0000 0.0104 0.0286 0.0000 0.0000 0.0000 0.0000 1.2760 0.0000 204.4368 204.4368
14.5500 114.4543 0.0000 -69.1264 0.0000 0.0104 0.0280 0.0000 0.0000 0.0000 0.0000 1.2772 0.0000 204.1736 204.1736
14.6500 112.5746 0.0000 -69.3896 0.0000 0.0103 0.0274 0.0000 0.0000 0.0000 0.0000 1.2784 0.0000 203.9104 203.9104
14.7500 110.6949 0.0000 -69.6527 0.0000 0.0102 0.0269 0.0000 0.0000 0.0000 0.0000 1.2796 0.0000 203.6473 203.6473
14.8500 108.8152 0.0000 -69.9159 0.0000 0.0101 0.0263 0.0000 0.0000 0.0000 0.0000 1.2808 0.0000 203.3841 203.3841
14.9500 106.9355 0.0000 -70.1790 0.0000 0.0101 0.0257 0.0000 0.0000 0.0000 0.0000 1.2820 0.0000 203.1210 203.1210
15.0500 105.0558 0.0000 -70.4422 0.0000 0.0100 0.0252 0.0000 0.0000 0.0000 0.0000 1.2832 0.0000 202.8578 202.8578
15.1500 103.1761 0.0000 -70.7053 0.0000 0.0099 0.0247 0.0000 0.0000 0.0000 0.0000 1.2844 0.0000 202.5947 202.5947
15.2500 101.2964 0.0000 -70.9685 0.0000 0.0098 0.0242 0.0000 0.0000 0.0000 0.0000 1.2856 0.0000 202.3315 202.3315
15.3500 99.5594 0.0000 -71.1177 0.0000 0.0098 0.0241 0.0000 0.0000 0.0000 0.0000 1.2868 0.0000 202.1823 202.1823
15.4500 98.1396 0.0000 -71.0136 0.0000 0.0097 0.0248 0.0000 0.0000 0.0000 0.0000 1.2880 0.0000 202.2864 202.2864
15.5500 96.7198 0.0000 -70.9095 0.0000 0.0097 0.0256 0.0000 0.0000 0.0000 0.0000 1.2892 0.0000 202.3905 202.3905
15.6500 95.3001 0.0000 -70.8053 0.0000 0.0096 0.0263 0.0000 0.0000 0.0000 0.0000 1.2904 0.0000 202.4947 202.4947
15.7500 93.8803 0.0000 -70.7012 0.0000 0.0096 0.0272 0.0000 0.0000 0.0000 0.0000 1.2916 0.0000 202.5988 202.5988
15.8500 92.4605 0.0000 -70.5971 0.0000 0.0095 0.0280 0.0000 0.0000 0.0000 0.0000 1.2928 0.0000 202.7029 202.7029
15.9500 91.0407 0.0000 -70.4930 0.0000 0.0094 0.0289 0.0000 0.0000 0.0000 0.0000 1.2940 0.0000 202.8070 202.8070
16.0500 89.6209 0.0000 -70.3889 0.0000 0.0093 0.0298 0.0000 0.0000 0.0000 0.0000 1.2952 0.0000 202.9111 202.9111
16.1500 88.2012 0.0000 -70.2847 0.0000 0.0092 0.0307 0.0000 0.0000 0.0000 0.0000 1.2964 0.0000 203.0152 203.0152
16.2500 86.7814 0.0000 -70.1806 0.0000 0.0091 0.0317 0.0000 0.0000 0.0000 0.0000 1.2976 0.0000 203.1194 203.1194
16.3500 85.3616 0.0000 -70.0765 0.0000 0.0089 0.0327 0.0000 0.0000 0.0000 0.0000 1.2988 0.0000 203.2235 203.2235
16.4500 83.9418 0.0000 -69.9724 0.0000 0.0088 0.0338 0.0000 0.0000 0.0000 0.0000 1.3000 0.0000 203.3276 203.3276
16.5500 82.5220 0.0000 -69.8683 0.0000 0.0086 0.0349 0.0000 0.0000 0.0000 0.0000 1.3012 0.0000 203.4317 203.4317
16.6500 81.1023 0.0000 -69.7642 0.0000 0.0084 0.0361 0.0000 0.0000 0.0000 0.0000 1.3024 0.0000 203.5358 203.5358
16.7500 79.6825 0.0000 -69.6600 0.0000 0.0082 0.0373 0.0000 0.0000 0.0000 0.0000 1.3036 0.0000 203.6399 203.6399
16.8500 78.2627 0.0000 -69.5559 0.0000 0.0080 0.0385 0.0000 0.0000 0.0000 0.0000 1.3048 0.0000 203.7441 203.7441
16.9500 76.8429 0.0000 -69.4518 0.0000 0.0077 0.0398 0.0000 0.0000 0.0000 0.0000 1.3060 0.0000 203.8482 203.8482
17.0500 75.4231 0.0000 -69.3477 0.0000 0.0074 0.0412 0.0000 0.0000 0.0000 0.0000 1.3072 0.0000 203.9523 203.9523
17.1500 74.0033 0.0000 -69.2436 0.0000 0.0071 0.0426 0.0000 0.0000 0.0000 0.0000 1.3084 0.0000 204.0564 204.0564
17.2500 72.5836 0.0000 -69.1395 0.0000 0.0068 0.0441 0.0000 0.0000 0.0000 0.0000 1.3096 0.0000 204.1605 204.1605
