height(km) press(hPa) W(M/S) T(C) T-TE(C) QV(g/kg) SAT(g/kg) QC(g/kg) QH(g/kg) QI(g/kg) "Buoy(1e-2 m/s2)" radius(m) dwdt_entr(unitless) plumeT(K) envT(K)
0.0000 855.9363 28.7989 24.4618 0.2884 4.6710 23.3346 0.0000 0.0000 0.0000 -5.9623 1.3970 -0.0490 297.7617 297.4734
0.0500 851.2488 28.4334 23.6871 -2.2050 4.6745 22.3653 0.0000 0.0000 0.0000 -5.9623 1.4008 -0.0490 296.9871 299.1921
0.1500 841.6008 28.0153 22.7383 -3.0070 4.6793 21.3292 0.0000 0.0000 0.0000 -7.0961 1.4055 -0.0478 296.0383 299.0453
0.2500 831.9109 27.5786 21.7916 -3.2560 4.6829 20.3402 0.0000 0.0000 0.0000 -7.6228 1.4102 -0.0465 295.0916 298.3476
0.3500 822.3046 27.1148 20.8471 -3.5304 4.6855 19.3934 0.0000 0.0000 0.0000 -8.2589 1.4150 -0.0452 294.1471 297.6775
0.4500 812.9060 26.6264 19.9052 -3.8708 4.6873 18.4848 0.0000 0.0000 0.0000 -8.9718 1.4199 -0.0439 293.2052 297.0760
0.5500 803.5076 26.0937 18.9664 -4.2081 4.6883 17.6180 0.0000 0.0000 0.0000 -10.3042 1.4248 -0.0426 292.2664 296.4745
0.6500 794.3224 25.4769 18.0325 -5.1219 4.6883 16.7886 0.0000 0.0000 0.0000 -12.6167 1.4294 -0.0395 291.3325 296.4544
0.7500 785.2645 24.7472 17.1054 -6.3751 4.6872 15.9988 0.0000 0.0000 0.0000 -15.2720 1.4337 -0.0349 290.4054 296.7805
0.8500 776.2065 23.9194 16.1884 -7.6182 4.6848 15.2524 0.0000 0.0000 0.0000 -16.9888 1.4381 -0.0320 289.4884 297.1066
0.9500 767.3965 23.0344 15.2780 -7.9637 4.6821 14.5390 0.0000 0.0000 0.0000 -17.6342 1.4428 -0.0315 288.5780 296.5417
1.0500 758.6246 22.0855 14.3762 -8.1638 4.6794 13.8627 0.0000 0.0000 0.0000 -18.1133 1.4481 -0.0325 287.6762 295.8400
1.1500 749.8582 21.0668 13.4865 -8.3485 4.6764 13.2252 0.0000 0.0000 0.0000 -18.3655 1.4543 -0.0342 286.7865 295.1349
1.2500 741.4122 19.9867 12.6032 -8.3365 4.6735 12.6139 0.0000 0.0000 0.0000 -18.3975 1.4610 -0.0348 285.9032 294.2397
1.3500 732.9663 18.8454 11.7271 -8.3173 4.6705 12.0338 0.0000 0.0000 0.0000 -18.4082 1.4683 -0.0340 285.0271 293.3444
1.4500 724.5203 17.6332 10.8592 -8.2899 4.6675 11.4841 0.0000 0.0000 0.0000 -18.3954 1.4763 -0.0328 284.1592 292.4492
1.5500 716.0743 16.3369 10.0007 -8.2532 4.6641 10.9638 0.0000 0.0000 0.0000 -18.3559 1.4851 -0.0313 283.3007 291.5539
1.6500 707.6284 14.9369 9.1533 -8.2054 4.6602 10.4728 0.0000 0.0000 0.0000 -18.2890 1.4948 -0.0293 282.4532 290.6586
1.7500 699.2244 13.3971 8.3196 -8.1466 4.6558 10.0105 0.0000 0.0000 0.0000 -18.2288 1.5058 -0.0268 281.6196 289.7662
1.8500 691.2116 11.6523 7.5008 -8.1001 4.6512 9.5709 0.0000 0.0000 0.0000 -18.1500 1.5180 -0.0232 280.8008 288.9008
1.9500 683.1987 9.4733 6.7140 -8.0215 4.6461 9.1691 0.0000 0.0000 0.0000 -17.8628 1.5327 -0.0185 280.0140 288.0355
2.0500 675.1859 6.4178 6.0752 -7.7949 4.6363 8.8741 0.0000 0.0000 0.0000 -16.7600 1.5607 -0.0121 279.3752 287.1701
2.1500 667.1731 2.7878 6.0028 -7.0019 4.6071 8.9367 0.0000 0.0000 0.0000 -13.9306 1.6406 -0.0048 279.3028 286.3047
2.2500 659.1602 0.0656 6.8741 -5.2652 4.5450 9.6153 0.0000 0.0000 0.0000 -9.4925 1.8014 -0.0001 280.1741 285.4393
2.3500 651.1475 -0.9086 8.1961 -3.0779 4.4678 10.6710 0.0000 0.0000 0.0000 -5.1726 1.9895 -0.0011 281.4961 284.5739
2.4500 643.5287 -0.7694 8.9459 -1.4664 4.4008 11.3722 0.0000 0.0000 0.0000 -2.3743 2.1392 -0.0008 282.2458 283.7122
2.5500 635.9758 -0.4269 8.9250 -0.6263 4.3478 11.4932 0.0000 0.0000 0.0000 -0.9764 2.2431 -0.0004 282.2249 282.8512
2.6500 628.4230 -0.1890 8.4435 -0.2467 4.3035 11.2544 0.0000 0.0000 0.0000 -0.3572 2.3160 -0.0001 281.7435 281.9902
2.7500 620.8701 -0.0691 7.7393 -0.0899 4.2637 10.8520 0.0000 0.0000 0.0000 -0.1021 2.3679 -0.0000 281.0393 281.1292
2.8500 613.3172 -0.0193 6.9383 -0.0299 4.2265 10.3924 0.0000 0.0000 0.0000 0.0000 2.4039 -0.0000 280.2383 280.2682
2.9500 605.7643 -0.0020 6.0991 -0.0081 4.1913 9.9239 0.0000 0.0000 0.0000 0.0397 2.4263 -0.0000 279.3990 279.4071
3.0500 598.3182 0.0019 5.2478 -0.0004 4.1578 9.4647 0.0000 0.0000 0.0000 0.0382 2.4362 -0.0000 278.5478 278.5482
3.1500 591.2159 0.0013 4.3958 -0.0001 4.1260 9.0189 0.0000 0.0000 0.0000 0.0178 2.4344 -0.0000 277.6958 277.6959
3.2500 584.1136 0.0002 3.5436 -0.0000 4.0952 8.5918 0.0000 0.0000 0.0000 0.0021 2.4210 -0.0000 276.8436 276.8436
3.3500 577.0114 -0.0005 2.6914 0.0000 4.0648 8.1829 0.0000 0.0000 0.0000 -0.0092 2.3962 -0.0000 275.9914 275.9914
3.4500 569.9091 -0.0009 1.8391 -0.0000 4.0344 7.7915 0.0000 0.0000 0.0000 -0.0169 2.3593 -0.0000 275.1391 275.1391
3.5500 562.8068 -0.0011 0.9866 -0.0002 4.0036 7.4168 0.0000 0.0000 0.0000 -0.0219 2.3094 -0.0000 274.2866 274.2868
3.6500 555.7046 -0.0012 0.1337 -0.0008 3.9722 7.0581 0.0000 0.0000 0.0000 -0.0251 2.2453 -0.0000 273.4337 273.4345
3.7500 548.6932 -0.0011 -0.7217 -0.0018 3.9400 6.7127 0.0000 0.0000 0.0000 -0.0248 2.1650 -0.0000 272.5783 272.5801
3.8500 542.0532 -0.0009 -1.5834 -0.0003 3.9068 6.3750 0.0000 0.0000 0.0000 -0.0217 2.0663 -0.0000 271.7166 271.7169
3.9500 535.4130 -0.0007 -2.4463 -0.0000 3.8724 6.0521 0.0000 0.0000 0.0000 -0.0178 1.9477 -0.0000 270.8537 270.8537
4.0500 528.7729 -0.0004 -3.3095 0.0000 3.8369 5.7437 0.0000 0.0000 0.0000 -0.0121 1.8071 -0.0000 269.9905 269.9905
4.1500 522.1328 -0.0000 -4.1727 0.0000 3.8003 5.4494 0.0000 0.0000 0.0000 0.0000 1.6417 -0.0000 269.1273 269.1273
4.2500 515.4927 0.0000 -5.0359 0.0000 3.7629 5.1686 0.0000 0.0000 0.0000 0.0000 1.4480 0.0000 268.2640 268.2640
4.3500 508.8526 0.0000 -5.8991 0.0000 3.6982 4.9009 0.0000 0.0000 0.0000 0.0000 1.4492 0.0000 267.4008 267.4008
4.4500 502.2125 0.0000 -6.7624 0.0000 3.6289 4.6456 0.0000 0.0000 0.0000 0.0000 1.4504 0.0000 266.5376 266.5376
4.5500 495.9042 0.0000 -7.5005 0.0000 3.5277 4.4425 0.0000 0.0000 0.0000 0.0000 1.4516 0.0000 265.7995 265.7995
4.6500 489.7617 0.0000 -8.1762 0.0000 3.4145 4.2668 0.0000 0.0000 0.0000 0.0000 1.4528 0.0000 265.1238 265.1238
4.7500 483.6191 0.0000 -8.8519 0.0000 3.3042 4.0976 0.0000 0.0000 0.0000 0.0000 1.4540 0.0000 264.4481 264.4481
4.8500 477.4767 0.0000 -9.5276 0.0000 3.1968 3.9345 0.0000 0.0000 0.0000 0.0000 1.4552 0.0000 263.7724 263.7724
4.9500 471.3342 0.0000 -10.2032 0.0000 3.0923 3.7773 0.0000 0.0000 0.0000 0.0000 1.4564 0.0000 263.0967 263.0967
5.0500 465.1917 0.0000 -10.8789 0.0000 2.9907 3.6259 0.0000 0.0000 0.0000 0.0000 1.4576 0.0000 262.4211 262.4211
5.1500 459.0491 0.0000 -11.5546 0.0000 2.8918 3.4801 0.0000 0.0000 0.0000 0.0000 1.4588 0.0000 261.7454 261.7454
5.2500 452.9066 0.0000 -12.2303 0.0000 2.7957 3.3397 0.0000 0.0000 0.0000 0.0000 1.4600 0.0000 261.0697 261.0697
5.3500 447.0404 0.0000 -12.8992 0.0000 2.7106 3.2043 0.0000 0.0000 0.0000 0.0000 1.4612 0.0000 260.4008 260.4008
5.4500 441.4225 0.0000 -13.5621 0.0000 2.6347 3.0738 0.0000 0.0000 0.0000 0.0000 1.4624 0.0000 259.7379 259.7379
5.5500 435.8045 0.0000 -14.2251 0.0000 2.5601 2.9481 0.0000 0.0000 0.0000 0.0000 1.4636 0.0000 259.0749 259.0749
5.6500 430.1865 0.0000 -14.8880 0.0000 2.4868 2.8271 0.0000 0.0000 0.0000 0.0000 1.4648 0.0000 258.4120 258.4120
5.7500 424.5685 0.0000 -15.5509 0.0000 2.4148 2.7107 0.0000 0.0000 0.0000 0.0000 1.4660 0.0000 257.7491 257.7491
5.8500 418.9506 0.0000 -16.2138 0.0000 2.3443 2.5987 0.0000 0.0000 0.0000 0.0000 1.4672 0.0000 257.0862 257.0862
5.9500 413.3326 0.0000 -16.8767 0.0000 2.2751 2.4909 0.0000 0.0000 0.0000 0.0000 1.4684 0.0000 256.4232 256.4232
6.0500 407.7146 0.0000 -17.5397 0.0000 2.2072 2.3873 0.0000 0.0000 0.0000 0.0000 1.4696 0.0000 255.7603 255.7603
6.1500 402.0967 0.0000 -18.2026 0.0000 2.1408 2.2877 0.0000 0.0000 0.0000 0.0000 1.4708 0.0000 255.0974 255.0974
6.2500 396.8151 0.0000 -18.8959 0.0000 2.0560 2.1843 0.0000 0.0000 0.0000 0.0000 1.4720 0.0000 254.4041 254.4041
6.3500 391.7338 0.0000 -19.6073 0.0000 1.9629 2.0809 0.0000 0.0000 0.0000 0.0000 1.4732 0.0000 253.6927 253.6927
6.4500 386.6525 0.0000 -20.3186 0.0000 1.8736 1.9819 0.0000 0.0000 0.0000 0.0000 1.4744 0.0000 252.9813 252.9813
6.5500 381.5712 0.0000 -21.0300 0.0000 1.7879 1.8872 0.0000 0.0000 0.0000 0.0000 1.4756 0.0000 252.2699 252.2699
6.6500 376.4899 0.0000 -21.7414 0.0000 1.7057 1.7966 0.0000 0.0000 0.0000 0.0000 1.4768 0.0000 251.5586 251.5586
6.7500 371.4085 0.0000 -22.4528 0.0000 1.6270 1.7100 0.0000 0.0000 0.0000 0.0000 1.4780 0.0000 250.8472 250.8472
6.8500 366.3272 0.0000 -23.1642 0.0000 1.5515 1.6272 0.0000 0.0000 0.0000 0.0000 1.4792 0.0000 250.1358 250.1358
6.9500 361.2460 0.0000 -23.8756 0.0000 1.4792 1.5481 0.0000 0.0000 0.0000 0.0000 1.4804 0.0000 249.4244 249.4244
7.0500 356.1646 0.0000 -24.5869 0.0000 1.4099 1.4725 0.0000 0.0000 0.0000 0.0000 1.4816 0.0000 248.7130 248.7130
7.1500 351.0833 0.0000 -25.2983 0.0000 1.3436 1.4002 0.0000 0.0000 0.0000 0.0000 1.4828 0.0000 248.0017 248.0017
7.2500 346.4236 0.0000 -26.0008 0.0000 1.2280 1.3307 0.0000 0.0000 0.0000 0.0000 1.4840 0.0000 247.2992 247.2992
7.3500 341.8782 0.0000 -26.7008 0.0000 1.1068 1.2642 0.0000 0.0000 0.0000 0.0000 1.4852 0.0000 246.5992 246.5992
7.4500 337.3328 0.0000 -27.4008 0.0000 0.9945 1.2007 0.0000 0.0000 0.0000 0.0000 1.4864 0.0000 245.8992 245.8992
7.5500 332.7873 0.0000 -28.1008 0.0000 0.8904 1.1401 0.0000 0.0000 0.0000 0.0000 1.4876 0.0000 245.1992 245.1992
7.6500 328.2419 0.0000 -28.8008 0.0000 0.7941 1.0824 0.0000 0.0000 0.0000 0.0000 1.4888 0.0000 244.4992 244.4992
7.7500 323.6964 0.0000 -29.5007 0.0000 0.7051 1.0272 0.0000 0.0000 0.0000 0.0000 1.4900 0.0000 243.7992 243.7992
7.8500 319.1509 0.0000 -30.2008 0.0000 0.6230 0.9747 0.0000 0.0000 0.0000 0.0000 1.4912 0.0000 243.0992 243.0992
7.9500 314.6055 0.0000 -30.9008 0.0000 0.5473 0.9246 0.0000 0.0000 0.0000 0.0000 1.4924 0.0000 242.3992 242.3992
8.0500 310.0600 0.0000 -31.6008 0.0000 0.4776 0.8769 0.0000 0.0000 0.0000 0.0000 1.4936 0.0000 241.6992 241.6992
8.1500 305.5146 0.0000 -32.3008 0.0000 0.4135 0.8314 0.0000 0.0000 0.0000 0.0000 1.4948 0.0000 240.9992 240.9992
8.2500 300.9691 0.0000 -33.0007 0.0000 0.3547 0.7881 0.0000 0.0000 0.0000 0.0000 1.4960 0.0000 240.2992 240.2992
8.3500 296.8728 0.0000 -33.6879 0.0000 0.3132 0.7468 0.0000 0.0000 0.0000 0.0000 1.4972 0.0000 239.6121 239.6121
8.4500 292.8983 0.0000 -34.3715 0.0000 0.2781 0.7073 0.0000 0.0000 0.0000 0.0000 1.4984 0.0000 238.9285 238.9285
8.5500 288.9237 0.0000 -35.0551 0.0000 0.2457 0.6697 0.0000 0.0000 0.0000 0.0000 1.4996 0.0000 238.2449 238.2449
8.6500 284.9492 0.0000 -35.7387 0.0000 0.2160 0.6340 0.0000 0.0000 0.0000 0.0000 1.5008 0.0000 237.5612 237.5612
8.7500 280.9746 0.0000 -36.4224 0.0000 0.1887 0.6000 0.0000 0.0000 0.0000 0.0000 1.5020 0.0000 236.8776 236.8776
8.8500 277.0000 0.0000 -37.1060 0.0000 0.1636 0.5677 0.0000 0.0000 0.0000 0.0000 1.5032 0.0000 236.1940 236.1940
8.9500 273.0255 0.0000 -37.7896 0.0000 0.1407 0.5370 0.0000 0.0000 0.0000 0.0000 1.5044 0.0000 235.5104 235.5104
9.0500 269.0509 0.0000 -38.4733 0.0000 0.1197 0.5078 0.0000 0.0000 0.0000 0.0000 1.5056 0.0000 234.8267 234.8267
9.1500 265.0763 0.0000 -39.1569 0.0000 0.1006 0.4801 0.0000 0.0000 0.0000 0.0000 1.5068 0.0000 234.1431 234.1431
9.2500 261.1017 0.0000 -39.8405 0.0000 0.0832 0.4537 0.0000 0.0000 0.0000 0.0000 1.5080 0.0000 233.4595 233.4595
9.3500 257.1272 0.0000 -40.5241 0.0000 0.0673 0.4287 0.0000 0.0000 0.0000 0.0000 1.5092 0.0000 232.7759 232.7759
9.4500 253.1526 0.0000 -41.2077 0.0000 0.0530 0.4050 0.0000 0.0000 0.0000 0.0000 1.5104 0.0000 232.0922 232.0922
9.5500 249.2688 0.0000 -41.8875 0.0000 0.0423 0.3825 0.0000 0.0000 0.0000 0.0000 1.5116 0.0000 231.4125 231.4125
9.6500 245.7327 0.0000 -42.5523 0.0000 0.0410 0.3612 0.0000 0.0000 0.0000 0.0000 1.5128 0.0000 230.7477 230.7477
9.7500 242.1966 0.0000 -43.2170 0.0000 0.0396 0.3410 0.0000 0.0000 0.0000 0.0000 1.5140 0.0000 230.0829 230.0829
9.8500 238.6606 0.0000 -43.8818 0.0000 0.0383 0.3219 0.0000 0.0000 0.0000 0.0000 1.5152 0.0000 229.4182 229.4182
9.9500 235.1245 0.0000 -44.5466 0.0000 0.0370 0.3037 0.0000 0.0000 0.0000 0.0000 1.5164 0.0000 228.7534 228.7534
10.0500 231.5884 0.0000 -45.2114 0.0000 0.0357 0.2865 0.0000 0.0000 0.0000 0.0000 1.5176 0.0000 228.0886 228.0886
10.1500 228.0524 0.0000 -45.8762 0.0000 0.0345 0.2702 0.0000 0.0000 0.0000 0.0000 1.5188 0.0000 227.4238 227.4238
10.2500 224.5582 0.0000 -46.5348 0.0000 0.0334 0.2549 0.0000 0.0000 0.0000 0.0000 1.5200 0.0000 226.7652 226.7652
10.3500 221.3282 0.0000 -47.1550 0.0000 0.0338 0.2411 0.0000 0.0000 0.0000 0.0000 1.5212 0.0000 226.1450 226.1450
10.4500 218.0982 0.0000 -47.7751 0.0000 0.0341 0.2280 0.0000 0.0000 0.0000 0.0000 1.5224 0.0000 225.5248 225.5248
10.5500 214.8682 0.0000 -48.3953 0.0000 0.0341 0.2156 0.0000 0.0000 0.0000 0.0000 1.5236 0.0000 224.9047 224.9047
10.6500 211.6383 0.0000 -49.0155 0.0000 0.0341 0.2038 0.0000 0.0000 0.0000 0.0000 1.5248 0.0000 224.2845 224.2845
10.7500 208.4083 0.0000 -49.6356 0.0000 0.0340 0.1927 0.0000 0.0000 0.0000 0.0000 1.5260 0.0000 223.6644 223.6644
10.8500 205.1783 0.0000 -50.2558 0.0000 0.0338 0.1820 0.0000 0.0000 0.0000 0.0000 1.5272 0.0000 223.0442 223.0442
10.9500 201.9483 0.0000 -50.8759 0.0000 0.0335 0.1720 0.0000 0.0000 0.0000 0.0000 1.5284 0.0000 222.4241 222.4241
11.0500 198.8425 0.0000 -51.5139 0.0000 0.0328 0.1620 0.0000 0.0000 0.0000 0.0000 1.5296 0.0000 221.7861 221.7861
11.1500 195.9254 0.0000 -52.1790 0.0000 0.0316 0.1519 0.0000 0.0000 0.0000 0.0000 1.5308 0.0000 221.1210 221.1210
11.2500 193.0082 0.0000 -52.8441 0.0000 0.0305 0.1424 0.0000 0.0000 0.0000 0.0000 1.5320 0.0000 220.4559 220.4559
11.3500 190.0910 0.0000 -53.5092 0.0000 0.0293 0.1334 0.0000 0.0000 0.0000 0.0000 1.5332 0.0000 219.7907 219.7907
11.4500 187.1739 0.0000 -54.1744 0.0000 0.0282 0.1249 0.0000 0.0000 0.0000 0.0000 1.5344 0.0000 219.1256 219.1256
11.5500 184.2567 0.0000 -54.8395 0.0000 0.0271 0.1170 0.0000 0.0000 0.0000 0.0000 1.5356 0.0000 218.4605 218.4605
11.6500 181.3396 0.0000 -55.5046 0.0000 0.0260 0.1095 0.0000 0.0000 0.0000 0.0000 1.5368 0.0000 217.7954 217.7954
11.7500 178.4224 0.0000 -56.1697 0.0000 0.0249 0.1025 0.0000 0.0000 0.0000 0.0000 1.5380 0.0000 217.1303 217.1303
11.8500 175.5052 0.0000 -56.8348 0.0000 0.0239 0.0959 0.0000 0.0000 0.0000 0.0000 1.5392 0.0000 216.4652 216.4652
11.9500 172.8558 0.0000 -57.3960 0.0000 0.0227 0.0907 0.0000 0.0000 0.0000 0.0000 1.5404 0.0000 215.9040 215.9040
12.0500 170.2625 0.0000 -57.9354 0.0000 0.0215 0.0860 0.0000 0.0000 0.0000 0.0000 1.5416 0.0000 215.3646 215.3646
12.1500 167.6691 0.0000 -58.4748 0.0000 0.0204 0.0815 0.0000 0.0000 0.0000 0.0000 1.5428 0.0000 214.8252 214.8252
12.2500 165.0757 0.0000 -59.0142 0.0000 0.0193 0.0772 0.0000 0.0000 0.0000 0.0000 1.5440 0.0000 214.2858 214.2858
12.3500 162.4824 0.0000 -59.5537 0.0000 0.0183 0.0732 0.0000 0.0000 0.0000 0.0000 1.5452 0.0000 213.7463 213.7463
12.4500 159.8890 0.0000 -60.0931 0.0000 0.0173 0.0694 0.0000 0.0000 0.0000 0.0000 1.5464 0.0000 213.2069 213.2069
12.5500 157.2957 0.0000 -60.6325 0.0000 0.0164 0.0657 0.0000 0.0000 0.0000 0.0000 1.5476 0.0000 212.6675 212.6675
12.6500 154.7023 0.0000 -61.1719 0.0000 0.0156 0.0622 0.0000 0.0000 0.0000 0.0000 1.5488 0.0000 212.1281 212.1281
12.7500 152.1089 0.0000 -61.7113 0.0000 0.0147 0.0589 0.0000 0.0000 0.0000 0.0000 1.5500 0.0000 211.5887 211.5887
12.8500 149.5804 0.0000 -62.2339 0.0000 0.0140 0.0559 0.0000 0.0000 0.0000 0.0000 1.5512 0.0000 211.0661 211.0661
12.9500 147.3342 0.0000 -62.6832 0.0000 0.0138 0.0534 0.0000 0.0000 0.0000 0.0000 1.5524 0.0000 210.6168 210.6168
13.0500 145.0881 0.0000 -63.1324 0.0000 0.0136 0.0511 0.0000 0.0000 0.0000 0.0000 1.5536 0.0000 210.1676 210.1676
13.1500 142.8419 0.0000 -63.5816 0.0000 0.0133 0.0488 0.0000 0.0000 0.0000 0.0000 1.5547 0.0000 209.7184 209.7184
13.2500 140.5957 0.0000 -64.0309 0.0000 0.0131 0.0467 0.0000 0.0000 0.0000 0.0000 1.5559 0.0000 209.2691 209.2691
13.3500 138.3495 0.0000 -64.4801 0.0000 0.0128 0.0446 0.0000 0.0000 0.0000 0.0000 1.5571 0.0000 208.8199 208.8199
13.4500 136.1033 0.0000 -64.9293 0.0000 0.0126 0.0426 0.0000 0.0000 0.0000 0.0000 1.5583 0.0000 208.3707 208.3707
13.5500 133.8571 0.0000 -65.3786 0.0000 0.0123 0.0407 0.0000 0.0000 0.0000 0.0000 1.5595 0.0000 207.9214 207.9214
13.6500 131.6110 0.0000 -65.8278 0.0000 0.0120 0.0389 0.0000 0.0000 0.0000 0.0000 1.5607 0.0000 207.4722 207.4722
13.7500 129.3648 0.0000 -66.2770 0.0000 0.0118 0.0372 0.0000 0.0000 0.0000 0.0000 1.5619 0.0000 207.0229 207.0229
13.8500 127.1186 0.0000 -66.7263 0.0000 0.0115 0.0355 0.0000 0.0000 0.0000 0.0000 1.5631 0.0000 206.5737 206.5737
13.9500 124.8932 0.0000 -67.1679 0.0000 0.0112 0.0340 0.0000 0.0000 0.0000 0.0000 1.5643 0.0000 206.1320 206.1320
14.0500 123.0120 0.0000 -67.4840 0.0000 0.0111 0.0330 0.0000 0.0000 0.0000 0.0000 1.5655 0.0000 205.8160 205.8160
14.1500 121.1309 0.0000 -67.8000 0.0000 0.0110 0.0320 0.0000 0.0000 0.0000 0.0000 1.5667 0.0000 205.5000 205.5000
14.2500 119.2498 0.0000 -68.1160 0.0000 0.0108 0.0311 0.0000 0.0000 0.0000 0.0000 1.5679 0.0000 205.1840 205.1840
14.3500 117.3687 0.0000 -68.4321 0.0000 0.0107 0.0302 0.0000 0.0000 0.0000 0.0000 1.5691 0.0000 204.8679 204.8679
14.4500 115.4876 0.0000 -68.7481 0.0000 0.0106 0.0293 0.0000 0.0000 0.0000 0.0000 1.5703 0.0000 204.5519 204.5519
14.5500 113.6065 0.0000 -69.0641 0.0000 0.0104 0.0285 0.0000 0.0000 0.0000 0.0000 1.5715 0.0000 204.2359 204.2359
14.6500 111.7254 0.0000 -69.3801 0.0000 0.0103 0.0277 0.0000 0.0000 0.0000 0.0000 1.5727 0.0000 203.9199 203.9199
14.7500 109.8443 0.0000 -69.6962 0.0000 0.0102 0.0269 0.0000 0.0000 0.0000 0.0000 1.5739 0.0000 203.6038 203.6038
14.8500 107.9631 0.0000 -70.0122 0.0000 0.0100 0.0261 0.0000 0.0000 0.0000 0.0000 1.5751 0.0000 203.2878 203.2878
14.9500 106.0820 0.0000 -70.3282 0.0000 0.0099 0.0254 0.0000 0.0000 0.0000 0.0000 1.5763 0.0000 202.9718 202.9718
15.0500 104.2009 0.0000 -70.6442 0.0000 0.0098 0.0247 0.0000 0.0000 0.0000 0.0000 1.5775 0.0000 202.6557 202.6557
15.1500 102.3198 0.0000 -70.9603 0.0000 0.0097 0.0240 0.0000 0.0000 0.0000 0.0000 1.5787 0.0000 202.3397 202.3397
15.2500 100.4387 0.0000 -71.2763 0.0000 0.0095 0.0233 0.0000 0.0000 0.0000 0.0000 1.5799 0.0000 202.0237 202.0237
15.3500 98.9108 0.0000 -71.2810 0.0000 0.0095 0.0237 0.0000 0.0000 0.0000 0.0000 1.5811 0.0000 202.0190 202.0190
15.4500 97.4903 0.0000 -71.1910 0.0000 0.0094 0.0243 0.0000 0.0000 0.0000 0.0000 1.5823 0.0000 202.1089 202.1089
15.5500 96.0699 0.0000 -71.1011 0.0000 0.0094 0.0250 0.0000 0.0000 0.0000 0.0000 1.5835 0.0000 202.1989 202.1989
15.6500 94.6494 0.0000 -71.0111 0.0000 0.0094 0.0257 0.0000 0.0000 0.0000 0.0000 1.5847 0.0000 202.2889 202.2889
15.7500 93.2290 0.0000 -70.9212 0.0000 0.0093 0.0265 0.0000 0.0000 0.0000 0.0000 1.5859 0.0000 202.3788 202.3788
15.8500 91.8085 0.0000 -70.8312 0.0000 0.0092 0.0272 0.0000 0.0000 0.0000 0.0000 1.5871 0.0000 202.4688 202.4688
15.9500 90.3881 0.0000 -70.7412 0.0000 0.0092 0.0280 0.0000 0.0000 0.0000 0.0000 1.5883 0.0000 202.5587 202.5587
16.0500 88.9676 0.0000 -70.6513 0.0000 0.0091 0.0289 0.0000 0.0000 0.0000 0.0000 1.5895 0.0000 202.6487 202.6487
16.1500 87.5472 0.0000 -70.5613 0.0000 0.0090 0.0297 0.0000 0.0000 0.0000 0.0000 1.5907 0.0000 202.7387 202.7387
16.2500 86.1267 0.0000 -70.4714 0.0000 0.0089 0.0306 0.0000 0.0000 0.0000 0.0000 1.5919 0.0000 202.8286 202.8286
16.3500 84.7063 0.0000 -70.3814 0.0000 0.0088 0.0315 0.0000 0.0000 0.0000 0.0000 1.5931 0.0000 202.9186 202.9186
16.4500 83.2858 0.0000 -70.2914 0.0000 0.0086 0.0325 0.0000 0.0000 0.0000 0.0000 1.5943 0.0000 203.0086 203.0086
16.5500 81.8653 0.0000 -70.2015 0.0000 0.0085 0.0335 0.0000 0.0000 0.0000 0.0000 1.5955 0.0000 203.0985 203.0985
16.6500 80.4449 0.0000 -70.1115 0.0000 0.0083 0.0346 0.0000 0.0000 0.0000 0.0000 1.5967 0.0000 203.1885 203.1885
16.7500 79.0244 0.0000 -70.0215 0.0000 0.0081 0.0356 0.0000 0.0000 0.0000 0.0000 1.5979 0.0000 203.2784 203.2784
16.8500 77.6040 0.0000 -69.9316 0.0000 0.0079 0.0368 0.0000 0.0000 0.0000 0.0000 1.5991 0.0000 203.3684 203.3684
16.9500 76.1835 0.0000 -69.8416 0.0000 0.0077 0.0380 0.0000 0.0000 0.0000 0.0000 1.6003 0.0000 203.4584 203.4584
17.0500 74.7631 0.0000 -69.7517 0.0000 0.0075 0.0392 0.0000 0.0000 0.0000 0.0000 1.6015 0.0000 203.5483 203.5483
17.1500 73.3426 0.0000 -69.6617 0.0000 0.0072 0.0405 0.0000 0.0000 0.0000 0.0000 1.6027 0.0000 203.6383 203.6383
17.2500 71.9222 0.0000 -69.5717 0.0000 0.0070 0.0418 0.0000 0.0000 0.0000 0.0000 1.6039 0.0000 203.7283 203.7283
